1593786145.00
64.000000
-0.00
-0.00
-0.00
-0.00
-0.00
-0.00
-0.00
-0.00
-0.00
-0.00
0.00
0.01
0.01
-0.00
-0.03
-0.05
-0.05
0.00
0.13
0.36
0.66
1.01
1.37
1.72
2.06
2.40
2.79
3.24
3.80
4.42
5.06
5.66
6.20
6.68
7.15
7.68
8.31
9.14
10.09
11.04
11.88
12.56
13.14
13.76
14.66
15.97
17.91
20.31
22.89
25.37
27.59
29.62
31.75
34.39
37.83
42.42
47.83
53.56
59.08
64.08
68.63
73.19
78.42
84.78
92.76
101.84
111.27
120.20
128.14
135.12
141.73
149.22
156.17
164.79
175.67
189.02
203.77
217.15
224.86
222.15
205.42
173.53
128.70
74.80
16.42
-42.84
-101.07
-157.91
-213.68
-268.57
-322.32
-373.82
-422.10
-465.99
-504.16
-535.05
-556.99
-568.56
-568.80
-557.57
-535.27
-503.11
-462.49
-415.02
-362.34
-306.25
-248.71
-191.76
-137.43
-87.62
-44.18
-8.46
19.31
40.67
59.11
79.30
105.44
139.26
179.02
219.69
254.90
279.40
290.87
290.29
280.88
266.36
249.61
232.28
215.19
198.99
184.53
172.48
162.89
154.86
146.80
136.96
124.39
109.34
93.29
78.17
65.58
56.06
49.09
43.38
37.59
30.96
23.24
14.74
6.19
-1.55
-7.63
-11.39
-12.54
-11.26
-8.21
-4.36
-0.65
2.36
4.55
6.15
7.46
8.63
9.59
10.15
10.22
9.89
9.47
9.19
9.17
9.30
9.36
9.22
8.90
8.47
7.90
7.02
5.59
3.61
1.44
-0.32
-1.22
-1.38
-1.62
-3.14
-6.90
-13.16
-21.28
-30.03
-38.05
-44.25
-48.01
-49.13
-47.70
-44.09
-39.07
-33.72
-29.23
-26.41
-25.28
-25.04
-24.33
-21.97
-17.56
-11.81
-6.19
-2.25
-0.86
-1.79
-3.83
-5.37
-4.89
-1.34
5.86
16.82
30.92
46.46
60.68
70.22
72.34
66.09
52.89
36.03
19.33
5.70
-3.60
-8.80
-10.84
-10.60
-8.76
-5.90
-2.87
-0.75
-0.40
-1.98
-4.65
-7.07
-7.95
-6.73
-3.87
-0.82
0.65
-1.16
-7.18
-16.82
-27.73
-36.09
-37.88
-30.49
-14.28
7.09
27.74
41.87
46.05
40.33
27.72
12.38
-2.18
-14.14
-23.18
-29.46
-32.80
-32.45
-28.10
-20.29
-10.62
-1.30
5.72
9.40
9.82
7.95
5.03
2.12
-0.07
-1.24
-1.43
-0.97
-0.25
0.45
1.12
2.02
3.42
5.30
7.10
8.03
7.36
5.08
1.84
-1.26
-3.19
-3.54
-2.50
-0.62
1.63
3.99
6.32
8.22
8.95
7.66
3.86
-2.14
-9.28
-16.14
-21.38
-24.07
-23.91
-21.14
-16.44
-10.84
-5.41
-1.09
1.83
3.75
5.47
7.51
9.79
11.53
11.77
10.07
6.81
3.11
0.17
-1.33
-1.46
-0.80
0.12
1.18
2.59
4.55
6.94
9.19
10.51
10.31
8.55
5.76
2.80
0.51
-0.61
-0.56
0.23
1.13
1.63
1.53
1.04
0.54
0.35
0.42
0.42
-0.09
-1.29
-2.85
-4.09
-4.26
-3.08
-0.88
1.46
2.99
3.16
2.09
0.47
-0.89
-1.45
-1.26
-0.76
-0.50
-0.74
-1.28
-1.64
-1.28
0.01
1.97
3.96
5.31
5.63
5.02
3.97
3.11
2.91
3.43
4.39
5.23
5.51
5.11
4.20
3.18
2.36
1.83
1.33
0.81
0.00
-1.24
-2.91
-4.84
-6.82
-8.75
-10.60
-12.41
-14.16
-15.83
-17.27
-18.35
-18.99
-19.22
-19.19
-19.07
-19.01
-19.06
-19.20
-19.30
-19.19
-18.68
-17.63
-16.03
-13.97
-11.64
-9.23
-6.94
-4.86
-3.06
-1.56
-0.38
0.56
1.39
2.34
3.63
5.40
7.61
10.05
12.43
14.47
16.04
17.18
18.14
19.19
20.61
22.49
24.76
27.23
29.66
31.83
33.59
34.78
35.18
34.52
32.59
29.44
25.39
21.06
17.11
14.01
11.77
9.99
8.02
5.27
1.51
-3.05
-7.86
-12.26
-15.75
-18.13
-19.48
-20.07
-20.16
-19.89
-19.28
-18.29
-16.97
-15.47
-14.04
-12.92
-12.19
-11.73
-11.23
-10.43
-9.21
-7.72
-6.28
-5.24
-4.75
-4.74
-4.94
-5.02
-4.81
-4.33
-3.73
-3.22
-2.88
-2.71
-2.60
-2.49
-2.38
-2.39
-2.66
-3.22
-3.97
-4.70
-5.16
-5.22
-4.96
-4.67
-4.66
-5.17
-6.18
-7.52
-8.90
-10.15
-11.26
-12.35
-13.50
-14.55
-15.10
-14.65
-12.88
-9.81
-5.92
-1.96
1.37
3.69
5.04
5.77
6.28
6.77
7.16
7.15
6.46
5.04
3.14
1.22
-0.24
-0.94
-0.88
-0.29
0.50
1.26
1.89
2.45
3.06
3.75
4.44
4.99
5.23
5.11
4.67
4.03
3.30
2.50
1.58
0.47
-0.81
-2.12
-3.23
-3.92
-4.09
-3.83
-3.38
-3.09
-3.19
-3.74
-4.59
-5.42
-5.86
-5.65
-4.77
-3.40
-1.88
-0.56
0.35
0.81
0.89
0.67
0.09
-0.97
-2.68
-5.06
-7.94
-10.92
-13.58
-15.57
-16.83
-17.51
-17.85
-18.00
-17.90
-17.26
-15.79
-13.34
-9.99
-6.06
-1.91
2.23
6.31
10.44
14.69
18.96
22.97
26.34
28.86
30.61
31.92
33.25
34.87
36.74
38.52
39.82
40.41
40.37
39.97
39.45
38.77
37.56
35.28
31.55
26.43
20.57
14.92
10.40
7.44
5.84
4.88
3.68
1.69
-1.04
-3.97
-6.36
-7.73
-8.12
-8.00
-8.00
-8.44
-9.21
-9.83
-9.80
-8.94
-7.58
-6.38
-6.03
-6.89
-8.82
-11.25
-13.44
-14.78
-15.07
-14.58
-13.91
-13.74
-14.58
-16.57
-19.46
-22.76
-25.93
-28.56
-30.46
-31.54
-31.76
-31.02
-29.17
-26.15
-22.12
-17.45
-12.68
-8.32
-4.68
-1.82
0.40
2.17
3.63
4.78
5.56
5.94
5.94
5.69
5.30
4.91
4.59
4.40
4.41
4.63
5.08
5.68
6.33
6.97
7.56
8.12
8.67
9.18
9.62
9.93
10.15
10.32
10.47
10.52
10.29
9.58
8.29
6.47
4.33
2.14
0.07
-1.81
-3.58
-5.24
-6.70
-7.68
-7.82
-6.85
-4.79
-1.96
1.10
3.85
5.97
7.46
8.62
9.77
11.07
12.36
13.32
13.65
13.25
12.37
11.42
10.81
10.68
10.92
11.24
11.41
11.35
11.13
10.89
10.67
10.37
9.74
8.61
6.95
4.96
2.95
1.24
-0.02
-0.87
-1.54
-2.31
-3.38
-4.83
-6.59
-8.50
-10.39
-12.15
-13.72
-15.06
-16.05
-16.47
-16.13
-14.91
-12.98
-10.73
-8.70
-7.36
-6.88
-7.12
-7.68
-8.09
-8.04
-7.45
-6.53
-5.60
-4.95
-4.71
-4.79
-4.97
-5.05
-4.97
-4.83
-4.84
-5.19
-5.89
-6.77
-7.58
-8.15
-8.49
-8.74
-9.08
-9.50
-9.84
-9.84
-9.29
-8.21
-6.84
-5.63
-4.97
-5.13
-6.11
-7.71
-9.59
-11.45
-13.05
-14.25
-14.99
-15.23
-14.95
-14.20
-13.11
-11.90
-10.82
-10.02
-9.50
-9.10
-8.54
-7.61
-6.23
-4.49
-2.62
-0.85
0.71
2.09
3.45
4.92
6.55
8.26
9.90
11.31
12.46
13.42
14.34
15.35
16.54
17.85
19.16
20.28
21.10
21.60
21.88
22.05
22.19
22.19
21.78
20.69
18.83
16.39
13.84
11.68
10.23
9.44
8.98
8.39
7.39
6.01
4.54
3.44
3.18
4.06
6.13
8.99
11.82
13.49
12.94
9.69
4.16
-2.34
-8.07
-11.59
-12.20
-10.16
-6.37
-1.87
2.54
6.40
9.45
11.44
12.11
11.30
9.18
6.31
3.51
1.50
0.69
0.98
1.93
3.01
3.81
4.14
4.05
3.60
2.79
1.56
-0.17
-2.35
-4.80
-7.24
-9.45
-11.27
-12.66
-13.59
-13.95
-13.55
-12.29
-10.24
-7.75
-5.40
-3.82
-3.46
-4.38
-6.27
-8.54
-10.53
-11.76
-12.02
-11.41
-10.28
-8.95
-7.64
-6.29
-4.71
-2.72
-0.37
2.00
3.85
4.73
4.47
3.31
1.80
0.52
-0.21
-0.39
-0.35
-0.44
-0.89
-1.65
-2.53
-3.32
-3.98
-4.66
-5.61
-7.02
-8.84
-10.78
-12.39
-13.30
-13.37
-12.71
-11.60
-10.30
-8.94
-7.47
-5.79
-3.88
-1.89
-0.10
1.20
1.86
1.98
1.85
1.85
2.21
2.98
3.92
4.72
5.08
4.89
4.22
3.32
2.43
1.71
1.16
0.68
0.15
-0.47
-1.20
-1.97
-2.71
-3.41
-4.07
-4.72
-5.29
-5.66
-5.69
-5.29
-4.52
-3.60
-2.82
-2.41
-2.46
-2.83
-3.24
-3.42
-3.23
-2.67
-1.89
-1.03
-0.17
0.71
1.64
2.66
3.69
4.64
5.42
6.03
6.50
6.96
7.45
7.97
8.45
8.82
8.98
8.88
8.50
7.89
7.14
6.40
5.87
5.65
5.73
5.90
5.86
5.38
4.39
3.06
1.70
0.60
-0.14
-0.67
-1.25
-2.08
-3.19
-4.35
-5.23
-5.56
-5.31
-4.68
-4.01
-3.62
-3.63
-3.98
-4.46
-4.91
-5.21
-5.33
-5.26
-4.94
-4.28
-3.19
-1.67
0.13
2.00
3.68
5.04
6.09
7.03
8.15
9.69
11.65
13.77
15.58
16.61
16.64
15.83
14.69
13.85
13.68
14.12
14.67
14.68
13.69
11.72
9.19
6.71
4.77
3.49
2.67
2.02
1.37
0.82
0.62
0.95
1.76
2.71
3.31
3.20
2.30
0.86
-0.65
-1.80
-2.34
-2.30
-1.90
-1.40
-0.91
-0.32
0.65
2.22
4.36
6.68
8.62
9.65
9.55
8.61
7.43
6.69
6.84
7.91
9.61
11.49
13.22
14.59
15.57
16.09
15.96
14.85
12.45
8.67
3.88
-1.14
-5.39
-8.02
-8.71
-7.80
-6.13
-4.61
-3.85
-3.93
-4.59
-5.46
-6.45
-7.69
-9.43
-11.69
-14.20
-16.39
-17.75
-18.03
-17.35
-16.11
-14.74
-13.51
-12.44
-11.41
-10.29
-9.05
-7.87
-6.99
-6.62
-6.77
-7.24
-7.64
-7.59
-6.89
-5.61
-4.11
-2.90
-2.50
-3.20
-5.00
-7.59
-10.44
-12.95
-14.63
-15.12
-14.32
-12.30
-9.39
-6.11
-3.17
-1.27
-0.95
-2.33
-5.04
-8.36
-11.52
-14.05
-15.93
-17.51
-19.13
-20.87
-22.35
-22.85
-21.61
-18.10
-12.31
-4.82
3.18
10.12
14.50
15.36
12.78
7.99
3.05
0.03
0.24
3.73
9.38
15.50
20.52
23.59
24.59
23.90
22.02
19.35
16.27
13.26
11.00
10.19
11.33
14.37
18.61
22.89
26.03
27.29
26.65
24.78
22.68
21.16
20.56
20.60
20.70
20.31
19.26
17.82
16.50
15.81
15.99
16.95
18.33
19.69
20.56
20.53
19.16
16.17
11.50
5.55
-0.88
-6.72
-11.06
-13.50
-14.32
-14.34
-14.49
-15.44
-17.22
-19.30
-20.92
-21.43
-20.56
-18.49
-15.68
-12.70
-9.97
-7.77
-6.18
-5.13
-4.48
-4.03
-3.61
-3.14
-2.60
-2.03
-1.48
-0.93
-0.31
0.41
1.21
2.00
2.61
2.91
2.86
2.45
1.72
0.62
-0.94
-3.08
-5.80
-8.89
-12.00
-14.69
-16.60
-17.55
-17.62
-17.05
-16.15
-15.20
-14.42
-13.91
-13.65
-13.56
-13.41
-12.95
-11.87
-9.94
-7.13
-3.63
0.15
3.68
6.47
8.18
8.79
8.53
7.80
7.07
6.63
6.57
6.75
6.89
6.78
6.35
5.69
5.02
4.48
4.11
3.77
3.27
2.52
1.60
0.73
0.13
-0.08
0.02
0.21
0.23
-0.06
-0.59
-1.13
-1.42
-1.29
-0.82
-0.32
-0.19
-0.79
-2.22
-4.30
-6.60
-8.68
-10.22
-11.12
-11.43
-11.25
-10.61
-9.46
-7.75
-5.54
-3.01
-0.40
2.09
4.46
6.80
9.21
11.56
13.39
13.98
12.66
9.13
3.77
-2.42
-8.12
-12.03
-13.34
-11.87
-8.10
-3.01
2.23
6.52
9.06
9.55
8.17
5.52
2.39
-0.56
-2.89
-4.54
-5.65
-6.47
-7.17
-7.78
-8.18
-8.12
-7.39
-5.91
-3.88
-1.79
-0.30
0.00
-1.18
-3.72
-7.07
-10.46
-13.18
-14.74
-15.01
-14.18
-12.61
-10.67
-8.62
-6.60
-4.63
-2.72
-0.93
0.63
1.89
2.83
3.60
4.46
5.69
7.45
9.68
12.07
14.10
15.16
14.77
12.76
9.37
5.29
1.42
-1.43
-2.76
-2.52
-1.00
1.41
4.40
7.78
11.34
14.76
17.61
19.43
20.01
19.48
18.28
16.98
15.98
15.39
15.00
14.42
13.29
11.40
8.83
5.90
3.10
0.89
-0.48
-1.06
-1.22
-1.46
-2.28
-3.90
-6.29
-9.11
-11.88
-14.12
-15.48
-15.87
-15.51
-14.92
-14.70
-15.36
-17.05
-19.51
-22.17
-24.45
-26.02
-26.92
-27.57
-28.44
-29.87
-31.85
-34.06
-35.92
-36.83
-36.37
-34.38
-31.06
-26.90
-22.56
-18.62
-15.41
-12.85
-10.53
-7.87
-4.43
-0.12
4.75
9.58
13.76
16.82
18.64
19.32
19.07
18.10
16.53
14.47
12.12
9.83
8.03
7.15
7.37
8.59
10.40
12.27
13.76
14.66
14.97
14.77
14.16
13.15
11.75
10.06
8.31
6.83
5.91
5.66
5.94
6.43
6.75
6.61
5.88
4.69
3.27
1.91
0.82
0.06
-0.45
-0.87
-1.33
-1.84
-2.30
-2.55
-2.50
-2.24
-2.03
-2.20
-3.00
-4.43
-6.32
-8.32
-10.16
-11.72
-12.98
-13.93
-14.41
-14.17
-12.90
-10.53
-7.31
-3.80
-0.63
1.78
3.35
4.39
5.37
6.66
8.43
10.53
12.60
14.28
15.30
15.55
15.12
14.20
12.99
11.61
10.14
8.64
7.24
6.17
5.71
6.08
7.24
8.93
10.66
11.96
12.49
12.20
11.21
9.73
7.88
5.60
2.81
-0.51
-4.17
-7.71
-10.52
-12.06
-12.12
-10.88
-8.91
-6.91
-5.41
-4.58
-4.17
-3.76
-2.96
-1.68
-0.09
1.49
2.82
3.86
4.78
5.77
6.87
7.92
8.62
8.68
8.00
6.72
5.14
3.55
2.12
0.85
-0.40
-1.70
-3.05
-4.29
-5.18
-5.56
-5.45
-5.04
-4.64
-4.47
-4.62
-5.02
-5.52
-5.97
-6.34
-6.67
-7.07
-7.53
-7.96
-8.17
-7.98
-7.33
-6.31
-5.14
-4.04
-3.10
-2.23
-1.19
0.27
2.28
4.70
7.12
9.05
10.06
9.99
8.96
7.37
5.66
4.16
3.05
2.28
1.79
1.51
1.42
1.53
1.75
1.88
1.68
0.93
-0.38
-2.07
-3.82
-5.25
-6.10
-6.32
-6.10
-5.76
-5.62
-5.88
-6.51
-7.34
-8.07
-8.49
-8.54
-8.29
-7.83
-7.22
-6.33
-5.02
-3.15
-0.80
1.77
4.18
6.09
7.33
7.94
8.12
8.11
8.11
8.21
8.40
8.60
8.68
8.53
8.05
7.19
5.97
4.43
2.72
1.06
-0.29
-1.03
-0.98
-0.12
1.28
2.79
3.92
4.35
3.96
2.91
1.42
-0.25
-1.95
-3.62
-5.23
-6.76
-8.15
-9.40
-10.51
-11.50
-12.37
-13.07
-13.50
-13.54
-13.07
-11.99
-10.27
-7.97
-5.25
-2.44
0.06
1.92
2.95
3.23
3.01
2.62
2.29
2.05
1.81
1.50
1.12
0.85
0.91
1.43
2.34
3.40
4.31
4.87
5.06
5.03
5.01
5.18
5.52
5.91
6.12
5.98
5.41
4.46
3.23
1.84
0.37
-1.17
-2.78
-4.44
-6.03
-7.40
-8.39
-8.90
-8.92
-8.53
-7.81
-6.78
-5.38
-3.54
-1.27
1.24
3.65
5.54
6.59
6.70
6.02
4.89
3.70
2.76
2.21
2.03
2.17
2.51
3.03
3.67
4.39
5.09
5.59
5.73
5.40
4.66
3.69
2.80
2.24
2.14
2.42
2.83
3.07
2.93
2.34
1.41
0.28
-0.89
-2.07
-3.26
-4.47
-5.63
-6.57
-7.11
-7.10
-6.52
-5.56
-4.49
-3.60
-3.01
-2.64
-2.22
-1.51
-0.39
1.01
2.36
3.30
3.65
3.48
3.06
2.75
2.75
3.08
3.50
3.74
3.64
3.23
2.77
2.59
2.97
3.91
5.15
6.28
6.93
6.91
6.33
5.44
4.47
3.52
2.49
1.22
-0.36
-2.15
-3.90
-5.36
-6.41
-7.08
-7.54
-7.93
-8.30
-8.50
-8.32
-7.54
-6.06
-3.98
-1.54
0.94
3.22
5.20
6.94
8.59
10.28
11.99
13.56
14.80
15.56
15.88
15.98
16.10
16.40
16.78
16.93
16.49
15.21
13.10
10.40
7.50
4.79
2.54
0.84
-0.33
-1.10
-1.58
-1.85
-1.93
-1.89
-1.80
-1.82
-2.08
-2.63
-3.31
-3.84
-3.86
-3.17
-1.84
-0.27
1.01
1.52
1.14
0.12
-0.98
-1.58
-1.39
-0.56
0.41
0.96
0.75
-0.18
-1.44
-2.56
-3.25
-3.48
-3.41
-3.18
-2.70
-1.76
-0.17
2.00
4.38
6.48
7.91
8.59
8.73
8.71
8.74
8.72
8.30
7.18
5.36
3.24
1.42
0.41
0.51
1.61
3.12
4.09
3.49
0.62
-4.59
-11.43
-18.48
-23.69
-25.26
-22.47
-16.04
-7.89
-0.28
5.08
7.59
7.93
7.99
9.87
14.98
23.54
34.65
46.90
58.86
69.51
75.60
74.64
65.86
50.62
31.37
10.14
-11.93
-34.10
-55.64
-75.75
-93.15
-106.34
-113.69
-113.49
-104.24
-85.29
-57.68
-24.92
7.35
32.93
46.80
46.87
34.90
15.91
-3.73
-18.81
-27.09
-29.49
-28.40
-25.85
-22.30
-16.92
-8.93
1.11
10.93
17.51
18.66
14.28
6.21
-2.87
-10.57
-15.49
-17.02
-15.03
-9.77
-2.01
6.92
15.45
22.34
27.08
29.90
31.29
31.37
29.67
25.54
18.79
10.33
1.94
-4.28
-6.80
-5.47
-1.32
3.77
7.85
9.60
8.66
5.62
1.64
-2.14
-5.01
-6.82
-7.84
-8.44
-8.80
-8.75
-8.07
-6.72
-5.03
-3.64
-3.09
-3.49
-4.28
-4.58
-3.60
-1.24
1.78
4.21
4.88
3.50
0.72
-2.08
-3.57
-3.14
-1.10
1.52
3.54
4.24
3.63
2.24
0.71
-0.58
-1.61
-2.46
-3.09
-3.12
-2.33
-0.70
1.47
3.65
5.39
6.47
6.97
7.07
6.83
6.12
4.85
3.11
1.29
-0.04
-0.43
0.09
1.09
1.87
1.89
0.98
-0.61
-2.43
-4.12
-5.56
-6.81
-8.04
-9.32
-10.55
-11.50
-11.98
-11.93
-11.47
-10.75
-9.92
-9.01
-7.97
-6.81
-5.58
-4.47
-3.69
-3.35
-3.44
-3.65
-3.67
-3.20
-2.19
-0.75
0.83
2.26
3.35
4.04
4.38
4.49
4.46
4.32
4.05
3.64
3.11
2.55
2.04
1.68
1.48
1.38
1.31
1.20
1.04
0.88
0.84
0.95
1.21
1.51
1.70
1.65
1.29
0.72
0.08
-0.37
-0.42
0.03
0.95
2.12
3.22
3.94
4.08
3.61
2.71
1.61
0.51
-0.50
-1.37
-2.08
-2.56
-2.74
-2.56
-2.05
-1.35
-0.60
0.00
0.39
0.68
1.02
1.53
2.19
2.85
3.27
3.28
2.82
2.04
1.24
0.71
0.63
1.04
1.78
2.62
3.37
3.96
4.40
4.73
4.88
4.65
3.80
2.17
-0.18
-2.95
-5.72
-8.09
-9.82
-10.81
-11.14
-10.95
-10.42
-9.72
-8.96
-8.26
-7.78
-7.63
-7.86
-8.41
-9.16
-10.07
-11.10
-12.27
-13.60
-15.04
-16.50
-17.76
-18.65
-19.14
-19.40
-19.71
-20.30
-21.17
-22.13
-22.69
-22.07
-19.55
-15.00
-8.92
-2.31
3.83
8.74
12.00
13.70
14.79
16.35
18.91
22.08
24.86
26.25
25.65
22.82
18.21
13.62
11.01
11.45
14.58
18.97
23.01
25.38
25.12
22.14
18.33
16.29
18.21
25.43
38.00
54.55
71.43
82.49
75.76
44.13
-8.42
-66.68
-112.29
-134.41
-131.85
-108.50
-71.74
-29.97
10.75
44.57
67.22
77.47
77.21
71.21
65.42
64.80
71.74
86.19
104.33
113.78
102.42
65.76
11.40
-45.61
-90.92
-115.69
-116.97
-97.99
-66.51
-31.41
-0.35
21.93
33.72
37.09
33.37
24.74
13.59
1.95
-7.80
-13.55
-14.17
-10.68
-5.15
-0.47
0.98
-2.04
-9.13
-17.88
-25.02
-28.05
-26.43
-22.30
-18.75
-18.34
-22.11
-29.13
-36.48
-40.55
-38.72
-29.39
-14.71
1.29
14.66
22.88
25.29
23.13
19.01
14.68
11.19
8.72
7.08
5.86
4.68
3.08
0.93
-1.61
-4.34
-7.00
-9.60
-12.10
-14.65
-15.86
-15.18
-12.62
-8.72
-4.48
-0.83
0.94
0.82
-0.73
-2.85
-4.86
-6.24
-6.40
-5.43
-3.75
-2.02
-0.66
0.08
0.25
-0.02
-0.46
-0.80
-0.98
-1.07
-1.23
-1.52
-1.90
-2.22
-2.38
-2.35
-2.22
-2.34
-3.02
-4.41
-6.32
-8.38
-10.08
-11.07
-11.20
-10.53
-9.33
-7.86
-6.31
-4.69
-2.91
-0.85
1.52
4.11
6.68
8.89
10.46
11.25
11.39
11.17
11.00
11.15
11.73
12.59
13.46
14.04
14.08
13.48
12.20
10.30
7.93
5.31
2.78
0.70
-0.63
-1.08
-0.80
-0.12
0.53
0.79
0.53
-0.16
-1.12
-2.20
-3.37
-4.71
-6.29
-8.07
-9.79
-11.03
-11.37
-10.57
-8.74
-6.34
-4.01
-2.34
-1.55
-1.44
-1.45
-0.93
0.52
2.91
5.80
8.55
10.56
11.56
11.56
10.81
9.64
8.28
6.87
5.48
4.23
3.24
2.69
2.77
3.53
4.88
6.54
8.06
8.98
8.94
7.89
6.03
3.76
1.50
-0.52
-2.24
-3.73
-5.05
-6.12
-6.78
-6.94
-6.77
-6.63
-6.95
-7.95
-9.46
-11.00
-11.95
-11.86
-10.63
-8.45
-5.71
-2.75
0.15
2.89
5.36
7.48
9.18
10.44
11.24
11.57
11.32
10.41
8.82
6.74
4.54
2.70
1.52
1.06
1.11
1.35
1.56
1.69
1.78
1.86
1.85
1.58
0.93
-0.10
-1.37
-2.68
-3.88
-4.92
-5.79
-6.47
-6.94
-7.20
-7.36
-7.65
-8.36
-9.61
-11.30
-13.04
-14.33
-14.76
-14.13
-12.55
-10.38
-8.03
-5.87
-4.07
-2.66
-1.55
-0.65
0.07
0.60
0.92
1.05
1.12
1.27
1.61
2.16
2.81
3.38
3.70
3.69
3.40
3.00
2.70
2.67
2.95
3.40
3.77
3.80
3.39
2.65
1.85
1.35
1.34
1.77
2.36
2.76
2.75
2.35
1.74
1.15
0.65
0.15
-0.51
-1.38
-2.27
-2.82
-2.65
-1.67
-0.12
1.47
2.56
2.88
2.49
1.75
1.06
0.66
0.56
0.57
0.46
0.15
-0.28
-0.64
-0.73
-0.51
-0.15
0.07
-0.10
-0.75
-1.73
-2.70
-3.34
-3.44
-3.04
-2.38
-1.78
-1.47
-1.58
-2.06
-2.78
-3.56
-4.24
-4.75
-5.08
-5.27
-5.38
-5.42
-5.36
-5.18
-4.95
-4.84
-5.08
-5.76
-6.79
-7.89
-8.71
-8.98
-8.69
-7.99
-7.07
-6.01
-4.79
-3.33
-1.63
0.16
1.76
2.90
3.43
3.43
3.14
2.86
2.88
3.34
4.19
5.22
6.11
6.62
6.63
6.25
5.77
5.52
5.71
6.28
6.92
7.22
6.85
5.65
3.73
1.34
-1.18
-3.56
-5.60
-7.17
-8.16
-8.48
-8.15
-7.26
-6.08
-4.93
-4.16
-3.93
-4.10
-4.25
-3.84
-2.46
-0.05
3.10
6.42
9.26
11.17
12.13
12.48
12.74
13.20
13.89
14.62
15.14
15.24
14.91
14.33
13.76
13.29
12.64
11.43
9.51
7.14
4.89
3.39
3.04
3.69
4.54
4.19
1.34
-3.86
-9.47
-12.77
-11.89
-6.79
0.71
8.56
14.54
16.82
14.47
7.37
-4.36
-20.03
-38.40
-56.46
-69.70
-73.86
-66.97
-50.49
-28.65
-6.69
11.11
22.67
28.30
29.68
28.40
25.22
20.23
13.38
4.98
-3.88
-11.35
-15.36
-14.67
-9.68
-2.07
6.01
12.54
15.95
15.64
12.12
6.90
1.78
-1.98
-4.09
-5.04
-5.93
-8.31
-13.40
-21.19
-29.91
-36.61
-38.19
-32.82
-21.19
-5.04
12.29
27.03
36.48
40.25
39.86
37.87
34.92
32.36
31.20
30.59
28.61
22.47
12.22
1.10
-5.57
-3.01
10.75
33.62
59.75
80.77
89.07
80.53
54.97
15.31
-34.13
-88.43
-135.61
-162.89
-162.55
-134.90
-87.34
-31.48
20.34
58.48
78.75
82.90
75.64
62.22
46.83
32.14
19.46
9.49
2.74
-0.41
-0.08
1.99
3.46
2.80
-0.13
-4.08
-7.41
-8.86
-8.07
-5.34
-2.00
0.52
1.59
1.62
1.62
2.32
3.70
4.92
4.82
2.48
-2.07
-7.58
-11.97
-14.20
-14.85
-15.63
-17.92
-21.63
-25.02
-25.71
-22.16
-14.80
-6.02
1.00
4.14
3.45
0.92
-0.76
0.15
3.69
8.23
11.73
12.67
10.96
7.87
5.20
4.36
5.57
8.06
10.60
12.15
12.16
10.95
9.48
8.71
9.07
10.05
10.82
10.64
9.26
6.64
3.33
0.29
-1.74
-2.61
-2.95
-3.59
-5.03
-7.33
-10.66
-14.78
-19.27
-24.15
-28.37
-32.08
-35.57
-38.95
-39.02
-34.60
-27.00
-18.74
-11.74
-6.56
-3.00
-0.35
2.07
4.64
6.85
7.89
8.03
7.74
7.44
7.20
6.98
6.67
6.21
5.22
3.67
1.95
1.03
1.43
3.12
5.74
8.67
11.18
12.40
11.91
9.95
7.29
4.89
3.62
3.93
5.73
8.34
10.67
11.82
11.45
9.85
7.68
5.69
4.39
3.84
3.80
3.90
3.89
3.82
3.79
3.77
3.51
2.59
0.70
-2.13
-5.40
-8.27
-9.81
-9.49
-7.37
-4.16
-0.87
1.61
2.86
3.08
2.95
3.27
4.58
6.99
10.21
13.77
17.22
20.21
22.51
23.95
24.38
23.77
22.20
19.93
17.21
14.27
11.24
8.17
5.07
1.97
-1.12
-4.12
-6.94
-9.46
-11.50
-12.83
-13.31
-12.98
-12.12
-11.15
-10.42
-10.11
-10.26
-10.81
-11.80
-13.37
-15.73
-18.92
-22.64
-26.24
-28.89
-30.01
-29.44
-27.48
-24.73
-21.93
-19.61
-17.97
-16.82
-15.76
-14.61
-13.32
-11.86
-10.06
-7.73
-4.74
-1.05
3.05
7.03
9.80
10.48
8.98
6.08
3.07
1.13
0.96
2.43
4.85
6.73
6.78
4.51
0.26
-5.21
-11.27
-17.43
-23.57
-27.01
-26.32
-22.40
-17.70
-13.92
-10.99
-7.83
-3.01
4.32
14.41
26.20
37.97
47.98
54.64
56.61
52.95
44.46
32.11
17.95
4.12
-7.55
-16.01
-21.38
-23.85
-25.40
-27.85
-31.92
-36.71
-40.62
-42.02
-39.86
-34.25
-26.31
-17.78
-10.06
-3.87
1.01
5.14
9.15
13.40
17.69
21.43
23.73
23.95
21.78
17.49
11.85
6.19
2.39
2.20
6.70
15.99
29.02
43.74
57.84
69.54
76.96
80.08
78.78
72.79
61.98
46.91
29.10
10.83
-5.71
-19.22
-29.50
-37.39
-43.83
-49.17
-53.20
-55.34
-55.15
-52.61
-48.16
-42.42
-36.19
-30.39
-25.20
-20.75
-16.89
-13.40
-10.17
-7.30
-4.92
-3.14
-1.82
-0.55
0.96
2.82
4.81
6.60
7.86
8.52
8.63
8.24
7.31
5.77
3.78
1.86
0.77
1.03
2.61
4.87
6.87
7.78
7.18
5.36
3.06
0.95
-0.79
-2.28
-3.58
-4.33
-4.11
-2.61
0.33
4.56
9.65
14.69
18.82
21.74
23.84
25.56
27.40
30.36
35.00
42.01
50.71
59.21
65.22
66.98
63.11
53.20
38.17
19.66
-0.45
-21.19
-41.31
-58.29
-65.34
-56.84
-33.33
-2.10
26.82
45.51
50.04
40.43
18.82
-11.22
-46.84
-86.91
-128.77
-169.40
-199.28
-211.00
-202.38
-176.57
-139.02
-95.34
-50.48
-8.37
27.81
56.06
74.76
83.81
84.97
81.50
76.49
71.74
67.74
63.68
58.22
49.40
36.41
20.68
5.84
-3.58
-3.98
6.23
26.01
51.47
76.28
94.07
100.78
95.89
82.04
63.47
44.45
28.05
15.83
8.04
4.45
4.57
7.21
10.12
10.04
3.78
-9.49
-27.56
-46.07
-60.57
-68.44
-69.68
-66.21
-60.53
-54.32
-47.84
-40.58
-32.07
-22.37
-12.07
-1.93
7.31
14.95
20.33
22.97
22.64
19.40
13.81
6.87
-0.12
-6.05
-10.49
-13.70
-16.35
-19.21
-22.95
-27.75
-33.10
-37.91
-41.03
-41.94
-40.84
-38.33
-35.12
-31.99
-29.64
-28.42
-28.13
-28.32
-28.53
-28.26
-26.87
-21.64
-11.41
4.80
24.67
44.31
60.36
70.77
74.63
72.11
64.55
56.16
48.32
42.18
38.41
36.60
35.06
31.84
25.84
15.93
2.41
-13.62
-30.03
-44.40
-54.93
-61.19
-63.56
-62.64
-58.94
-52.76
-44.34
-33.29
-18.71
1.12
24.79
47.60
63.98
70.22
65.47
51.83
34.22
18.78
10.39
10.75
18.38
29.81
40.95
48.32
49.78
44.54
32.50
14.02
-9.83
-36.10
-59.49
-73.62
-73.19
-56.51
-26.58
9.06
40.52
58.72
58.81
41.91
14.58
-13.59
-33.38
-38.99
-29.81
-10.16
12.55
30.79
39.58
37.99
29.07
17.15
6.55
0.05
-1.68
0.42
4.86
10.28
15.48
19.18
19.97
16.52
8.14
-4.47
-19.08
-32.49
-41.77
-45.45
-44.09
-39.90
-35.48
-32.70
-32.10
-33.06
-34.35
-34.95
-34.44
-33.04
-31.42
-30.47
-30.88
-32.72
-35.24
-36.82
-35.51
-29.85
-19.65
-6.32
7.64
19.59
27.80
31.91
32.82
31.96
30.58
29.27
28.08
26.81
25.29
23.54
21.61
19.54
17.37
15.19
13.04
11.01
9.10
7.22
5.28
3.27
1.40
-0.09
-1.10
-1.83
-2.70
-4.07
-5.91
-7.65
-8.43
-7.56
-4.93
-1.20
2.48
4.98
5.74
4.86
3.04
1.18
-0.01
-0.20
0.38
1.23
1.76
1.60
0.76
-0.23
-0.39
1.57
6.84
16.43
30.77
49.01
68.72
86.14
97.09
98.23
88.20
68.20
42.08
15.49
-5.86
-17.85
-18.90
-10.06
5.58
24.03
41.24
54.79
64.28
70.68
75.24
78.81
81.58
83.23
83.29
80.38
74.31
66.27
57.87
50.03
42.82
35.93
29.05
22.24
13.81
4.20
-4.22
-9.95
-14.46
-21.35
-34.18
-54.59
-81.37
-114.46
-149.71
-180.15
-200.70
-211.19
-215.18
-217.16
-220.69
-227.83
-243.98
-269.56
-299.14
-325.47
-343.00
-347.83
-337.14
-309.64
-237.66
-126.53
-9.32
83.52
143.54
176.85
192.74
198.41
198.43
195.52
186.74
172.71
158.57
149.39
146.61
148.46
151.45
151.91
146.71
130.56
103.74
72.86
46.41
29.87
24.00
25.05
27.04
24.82
13.29
-7.31
-31.62
-53.37
-69.18
-77.81
-81.82
-82.86
-80.06
-71.62
-54.82
-28.45
4.66
37.81
64.12
78.30
79.61
71.30
57.99
43.95
31.73
21.81
13.46
6.10
-0.34
-5.10
-7.57
-8.00
-7.42
-7.27
-8.64
-11.80
-16.09
-20.47
-23.69
-24.85
-23.75
-20.81
-16.83
-12.51
-8.84
-6.24
-4.76
-4.06
-3.75
-3.65
-3.91
-4.85
-6.73
-9.55
-12.91
-16.29
-19.25
-21.59
-23.43
-25.13
-27.09
-29.55
-32.49
-35.55
-38.25
-40.08
-40.78
-40.37
-39.19
-37.72
-36.39
-35.39
-34.61
-33.80
-32.75
-31.44
-29.97
-28.45
-26.79
-24.71
-21.86
-18.11
-13.72
-9.41
-6.03
-4.27
-4.32
-5.81
-8.03
-10.25
-12.02
-13.25
-14.19
-15.09
-16.03
-16.69
-16.40
-14.37
-10.03
-3.38
4.93
13.80
22.11
29.11
34.62
38.91
42.31
44.83
46.09
45.43
42.31
36.58
28.64
19.29
9.41
-0.18
-8.63
-14.96
-17.87
-15.91
-7.92
6.28
25.45
46.95
67.36
83.65
94.17
99.13
100.35
100.22
100.59
102.00
103.71
104.28
102.47
97.78
90.50
81.31
70.77
59.10
46.41
33.20
20.61
10.29
3.82
1.97
4.23
8.99
14.10
17.72
18.88
17.53
14.27
9.79
4.42
-1.89
-9.32
-17.80
-26.67
-34.77
-40.75
-43.68
-43.49
-40.99
-37.57
-34.57
-32.77
-32.22
-32.46
-32.90
-33.25
-33.54
-33.99
-34.71
-35.56
-36.14
-35.96
-34.68
-32.18
-28.63
-24.36
-19.70
-14.81
-9.71
-4.28
1.48
7.35
12.88
17.50
20.86
22.98
24.25
25.25
26.44
28.05
30.03
32.27
34.75
37.66
41.25
45.59
50.50
55.67
60.90
66.21
71.76
77.63
83.65
89.36
94.16
97.64
99.75
100.78
101.00
100.38
98.52
94.92
89.20
81.38
71.94
61.63
51.48
42.33
34.69
28.85
25.14
23.77
24.60
26.89
29.22
29.95
27.25
19.49
6.02
-12.28
-33.37
-54.66
-73.70
-88.81
-98.71
-103.30
-103.75
-101.71
-98.41
-94.50
-89.98
-84.30
-76.71
-65.91
-51.46
-34.34
-16.50
0.15
13.62
22.02
23.53
12.77
-10.83
-41.39
-70.43
-92.20
-104.43
-107.86
-104.87
-98.63
-92.15
-86.92
-83.38
-81.36
-81.86
-82.97
-83.32
-82.01
-78.72
-73.88
-67.82
-60.82
-52.83
-43.48
-32.14
-18.90
-4.54
10.19
22.91
31.03
32.58
27.01
15.38
0.52
-13.71
-22.71
-22.38
-9.30
14.91
42.35
64.66
78.23
84.18
85.27
83.71
80.03
73.37
62.61
48.04
31.89
17.35
6.95
1.61
0.79
2.86
5.79
7.81
8.34
8.14
8.49
9.97
12.05
13.43
12.68
8.94
2.29
-5.89
-13.82
-19.71
-22.72
-23.10
-21.75
-19.68
-17.67
-16.08
-14.83
-13.56
-11.88
-9.73
-7.30
-4.84
-2.46
-0.21
1.81
3.33
4.08
3.99
3.29
2.50
2.25
2.92
4.29
5.63
5.97
4.87
2.65
-0.12
-3.41
-7.95
-14.68
-23.94
-34.48
-43.73
-48.70
-47.42
-39.86
-27.81
-13.90
-0.45
10.59
17.83
19.89
15.54
4.10
-13.72
-35.03
-54.71
-66.45
-65.90
-50.68
-22.52
13.17
49.23
79.18
99.28
107.37
105.77
97.26
83.81
66.37
46.03
24.87
5.85
-8.30
-16.44
-19.34
-19.39
-19.23
-20.77
-24.49
-29.58
-34.60
-38.10
-39.00
-36.50
-30.57
-21.67
-10.74
1.02
12.33
22.01
29.21
33.56
35.30
34.83
32.72
29.55
25.98
22.70
20.41
19.57
20.15
21.59
22.91
22.88
20.58
15.89
9.49
2.42
-4.44
-10.83
-16.98
-23.39
-30.38
-37.73
-44.75
-50.56
-54.51
-56.48
-56.95
-56.57
-55.93
-55.29
-54.53
-53.28
-51.20
-48.24
-44.83
-41.65
-39.09
-37.10
-35.21
-32.82
-29.58
-25.54
-21.11
-16.77
-12.79
-8.75
-3.92
2.31
9.93
18.40
27.15
36.14
46.14
56.73
66.90
74.94
78.67
75.84
65.21
47.72
26.59
6.22
-9.74
-19.46
-23.77
-24.65
-23.96
-22.81
-21.51
-19.98
-18.24
-16.75
-16.11
-16.84
-19.02
-22.41
-26.29
-29.80
-32.21
-33.26
-33.15
-32.36
-31.44
-30.67
-30.04
-29.08
-27.23
-24.21
-20.14
-15.63
-11.36
-7.88
-5.39
-3.66
-1.92
0.35
3.18
6.23
9.04
11.20
12.46
12.85
12.57
12.66
13.65
15.46
17.75
20.33
23.29
26.79
30.95
35.83
42.46
51.12
61.37
72.74
85.22
98.99
113.74
128.37
141.29
152.13
159.84
162.80
159.59
149.80
133.99
113.45
90.15
58.58
21.34
-13.85
-40.41
-57.38
-67.87
-75.35
-81.81
-87.61
-92.16
-93.54
-91.41
-86.93
-81.64
-76.99
-72.78
-68.86
-65.35
-62.49
-59.45
-55.98
-52.37
-48.94
-45.53
-41.59
-36.37
-30.25
-24.20
-18.51
-13.71
-10.13
-7.74
-5.92
-3.85
-1.18
1.85
4.61
7.02
8.46
8.46
6.96
4.35
1.37
-1.31
-3.09
-3.59
-2.63
-0.47
2.27
4.89
6.85
8.05
7.98
6.82
5.11
3.41
1.99
0.88
-0.04
-0.89
-1.66
-2.27
-2.57
-2.53
-2.30
-2.26
-2.73
-3.90
-5.72
-7.96
-10.22
-11.96
-12.73
-12.27
-10.65
-8.14
-5.20
-2.29
0.28
2.40
4.15
5.52
6.38
6.51
5.73
4.12
2.00
-0.17
-2.01
-3.39
-4.51
-5.72
-7.24
-8.97
-10.61
-11.78
-12.30
-12.33
-12.23
-12.39
-12.96
-13.77
-14.47
-14.70
-14.32
-13.50
-12.63
-12.08
-12.04
-12.42
-12.88
-13.00
-12.50
-11.31
-9.57
-7.54
-5.40
-3.16
-0.68
2.20
5.52
9.02
12.26
14.79
16.31
16.90
16.90
16.81
16.99
17.51
18.19
18.72
18.92
18.83
18.71
18.79
19.08
19.31
19.07
17.97
15.97
13.35
10.67
8.41
6.78
5.64
4.59
3.24
1.39
-0.88
-3.26
-5.39
-7.03
-8.08
-8.57
-8.56
-8.06
-7.03
-5.41
-3.22
-0.62
2.17
4.88
7.30
9.32
10.97
12.32
13.51
14.59
15.51
16.15
16.40
16.22
15.71
15.11
14.64
14.39
14.29
14.09
13.55
12.57
11.24
9.81
8.54
7.52
6.66
5.75
4.59
3.15
1.52
-0.10
-1.54
-2.78
-3.99
-5.45
-7.37
-9.76
-12.32
-14.51
-15.76
-15.70
-14.34
-12.05
-9.39
-6.82
-4.56
-2.49
-0.41
1.83
4.13
6.16
7.57
8.19
8.17
7.89
7.80
8.14
8.83
9.55
9.90
9.70
8.99
8.06
7.22
6.63
6.21
5.74
4.98
3.86
2.50
1.17
0.12
-0.58
-1.06
-1.60
-2.48
-3.83
-5.60
-7.56
-9.48
-11.24
-12.84
-14.35
-15.80
-17.02
-17.73
-17.58
-16.39
-14.20
-11.35
-8.29
-5.42
-2.89
-0.60
1.66
4.06
6.57
8.92
10.75
11.84
12.22
12.15
12.01
12.08
12.42
12.84
13.08
12.96
12.51
11.94
11.58
11.68
12.23
13.00
13.58
13.67
13.20
12.40
11.65
11.32
11.46
11.88
12.22
12.21
11.89
11.48
11.34
11.71
12.62
13.90
15.40
17.10
19.15
21.77
25.07
28.90
32.83
36.23
38.41
38.89
37.49
34.33
29.85
24.56
18.96
13.43
8.19
3.38
-0.92
-4.68
-7.96
-10.89
-13.70
-16.65
-19.85
-23.22
-26.47
-29.22
-31.15
-32.18
-32.54
-32.71
-33.20
-34.33
-36.04
-37.93
-39.35
-39.77
-38.98
-37.22
-35.07
-33.13
-31.78
-31.04
-30.61
-30.12
-29.34
-28.30
-27.18
-26.13
-25.08
-23.73
-21.71
-18.75
-14.93
-10.62
-6.41
-2.81
-0.08
1.83
3.18
4.26
5.24
6.12
6.76
7.07
7.07
6.92
6.85
7.04
7.50
8.05
8.40
8.32
7.74
6.81
5.78
4.92
4.31
3.82
3.15
2.06
0.53
-1.19
-2.73
-3.75
-4.26
-4.59
-5.23
-6.52
-8.44
-10.63
-12.57
-13.84
-14.35
-14.31
-14.02
-13.64
-13.08
-12.07
-10.40
-8.05
-5.29
-2.50
-0.07
1.87
3.38
4.61
5.71
6.67
7.33
7.49
7.05
6.05
4.70
3.27
1.97
0.87
-0.11
-1.13
-2.39
-3.97
-5.87
-7.95
-10.05
-12.02
-13.85
-15.64
-17.59
-19.80
-22.21
-24.61
-26.66
-28.16
-29.16
-30.00
-31.16
-33.00
-35.53
-38.29
-40.48
-41.24
-39.99
-36.59
-31.39
-25.05
-18.33
-11.92
-6.32
-1.81
1.56
3.95
5.72
7.39
9.53
12.62
16.86
22.13
27.90
33.43
37.90
40.77
41.84
41.30
39.65
37.45
35.17
33.07
31.17
29.44
27.77
26.14
24.54
22.98
21.42
19.76
17.90
15.84
13.66
11.57
9.77
8.32
7.05
5.63
3.66
1.02
-2.10
-5.16
-7.52
-8.72
-8.72
-7.83
-6.58
-5.34
-4.22
-2.99
-1.33
0.94
3.70
6.47
8.69
9.98
10.33
10.10
9.87
10.08
10.88
12.02
13.11
13.81
14.05
14.04
14.13
14.58
15.35
16.16
16.64
16.54
15.87
14.90
13.98
13.36
13.05
12.90
12.67
12.27
11.80
11.54
11.74
12.47
13.48
14.27
14.33
13.43
11.79
9.97
8.71
8.58
9.75
11.95
14.63
17.15
19.00
20.00
20.18
19.76
18.88
17.56
15.60
12.77
8.93
4.20
-1.00
-6.08
-10.54
-14.15
-17.01
-19.42
-21.61
-23.66
-25.38
-26.52
-26.93
-26.75
-26.35
-26.12
-26.30
-26.83
-27.40
-27.66
-27.42
-26.74
-25.85
-25.01
-24.35
-23.82
-23.26
-22.58
-21.81
-21.18
-20.94
-21.25
-22.03
-22.97
-23.63
-23.60
-22.69
-21.01
-18.87
-16.63
-14.52
-12.54
-10.47
-8.10
-5.33
-2.29
0.68
3.26
5.26
6.75
7.92
8.98
9.99
10.83
11.30
11.26
10.75
9.99
9.27
8.80
8.62
8.57
8.37
7.82
6.85
5.57
4.25
3.14
2.36
1.86
1.43
0.81
-0.10
-1.24
-2.43
-3.46
-4.27
-4.98
-5.79
-6.87
-8.22
-9.61
-10.74
-11.33
-11.25
-10.57
-9.50
-8.21
-6.75
-5.06
-3.01
-0.52
2.36
5.42
8.39
11.04
13.28
15.16
16.79
18.25
19.52
20.53
21.20
21.58
21.87
22.29
23.00
24.01
25.15
26.20
26.97
27.46
27.74
27.94
28.13
28.28
28.25
27.86
26.94
25.45
23.45
21.12
18.76
16.63
14.83
13.21
11.46
9.25
6.42
3.15
-0.08
-2.77
-4.59
-5.56
-6.02
-6.34
-6.73
-7.04
-6.92
-6.03
-4.31
-2.08
0.14
1.92
3.13
4.02
4.98
6.27
7.85
9.31
10.11
9.94
8.83
7.19
5.64
4.66
4.46
4.91
5.75
6.74
7.85
9.14
10.70
12.40
13.86
14.63
14.29
12.81
10.47
7.84
5.45
3.56
2.02
0.43
-1.67
-4.48
-7.84
-11.27
-14.23
-16.34
-17.58
-18.26
-18.78
-19.39
-20.08
-20.56
-20.52
-19.82
-18.58
-17.14
-15.87
-14.95
-14.34
-13.86
-13.26
-12.41
-11.33
-10.16
-9.10
-8.29
-7.79
-7.49
-7.22
-6.81
-6.19
-5.52
-5.02
-4.88
-5.14
-5.62
-6.05
-6.24
-6.18
-6.11
-6.33
-7.00
-8.04
-9.18
-10.11
-10.69
-11.05
-11.49
-12.29
-13.52
-15.01
-16.39
-17.33
-17.68
-17.57
-17.27
-17.00
-16.82
-16.54
-15.88
-14.62
-12.76
-10.50
-8.16
-6.05
-4.28
-2.83
-1.54
-0.31
0.87
1.83
2.33
2.22
1.53
0.54
-0.32
-0.70
-0.49
0.15
0.84
1.21
1.10
0.62
0.04
-0.41
-0.62
-0.75
-1.02
-1.64
-2.63
-3.85
-5.03
-5.91
-6.40
-6.60
-6.76
-7.15
-7.92
-9.03
-10.26
-11.31
-12.02
-12.40
-12.65
-12.96
-13.35
-13.63
-13.44
-12.46
-10.61
-8.08
-5.31
-2.68
-0.41
1.56
3.43
5.42
7.55
9.59
11.17
11.95
11.85
11.08
10.16
9.60
9.76
10.60
11.75
12.68
12.99
12.62
11.82
11.07
10.73
10.90
11.37
11.79
11.88
11.57
11.02
10.49
10.08
9.70
9.06
7.98
6.51
5.02
4.01
3.84
4.49
5.46
6.05
5.70
4.30
2.21
0.15
-1.27
-1.80
-1.65
-1.40
-1.56
-2.33
-3.49
-4.51
-4.85
-4.31
-3.10
-1.79
-0.97
-1.00
-1.84
-3.13
-4.37
-5.20
-5.54
-5.59
-5.59
-5.69
-5.88
-6.01
-5.92
-5.62
-5.25
-5.06
-5.23
-5.75
-6.39
-6.83
-6.83
-6.37
-5.70
-5.25
-5.33
-6.05
-7.18
-8.34
-9.15
-9.50
-9.59
-9.79
-10.38
-11.41
-12.64
-13.66
-14.14
-13.93
-13.15
-12.03
-10.75
-9.36
-7.78
-5.90
-3.70
-1.35
0.85
2.58
3.65
4.09
4.09
3.96
3.98
4.20
4.53
4.72
4.62
4.22
3.67
3.27
3.27
3.70
4.38
4.95
5.08
4.65
3.75
2.68
1.75
1.08
0.59
-0.02
-0.98
-2.35
-3.93
-5.36
-6.31
-6.75
-6.96
-7.40
-8.41
-9.98
-11.73
-13.04
-13.41
-12.68
-11.14
-9.31
-7.65
-6.33
-5.13
-3.64
-1.57
1.09
3.94
6.43
8.07
8.74
8.68
8.33
8.13
8.24
8.58
8.84
8.81
8.39
7.72
7.02
6.51
6.19
5.93
5.49
4.69
3.54
2.26
1.13
0.38
0.01
-0.27
-0.82
-1.96
-3.73
-5.91
-8.13
-10.06
-11.57
-12.74
-13.76
-14.72
-15.54
-15.95
-15.65
-14.43
-12.33
-9.62
-6.70
-3.92
-1.46
0.74
2.85
5.02
7.24
9.29
10.88
11.79
12.00
11.75
11.38
11.15
11.11
11.13
10.94
10.42
9.63
8.80
8.21
8.00
8.04
8.04
7.67
6.75
5.33
3.67
2.11
0.83
-0.14
-1.01
-2.06
-3.49
-5.33
-7.42
-9.49
-11.31
-12.78
-13.94
-14.89
-15.68
-16.18
-16.11
-15.21
-13.32
-10.57
-7.32
-4.04
-1.09
1.36
3.39
5.19
6.94
8.62
10.07
11.06
11.44
11.25
10.75
10.29
10.14
10.37
10.83
11.24
11.35
11.08
10.53
9.88
9.29
8.73
8.00
6.87
5.24
3.26
1.31
-0.20
-1.04
-1.32
-1.48
-2.06
-3.43
-5.58
-8.16
-10.66
-12.66
-14.04
-14.93
-15.55
-15.99
-16.09
-15.52
-14.00
-11.43
-8.03
-4.28
-0.68
2.42
4.93
7.00
8.82
10.54
12.15
13.50
14.40
14.76
14.66
14.35
14.12
14.14
14.39
14.60
14.46
13.77
12.57
11.18
10.02
9.41
9.30
9.35
9.02
7.97
6.16
3.97
1.90
0.31
-0.78
-1.74
-3.05
-4.99
-7.52
-10.25
-12.71
-14.59
-15.89
-16.83
-17.62
-18.25
-18.49
-17.98
-16.47
-13.95
-10.69
-7.11
-3.64
-0.51
2.25
4.73
7.07
9.30
11.33
12.92
13.87
14.08
13.73
13.18
12.84
12.98
13.58
14.33
14.82
14.76
14.17
13.30
12.49
11.92
11.48
10.83
9.66
7.91
5.82
3.85
2.45
1.74
1.51
1.27
0.53
-0.97
-3.17
-5.74
-8.27
-10.50
-12.41
-14.14
-15.88
-17.63
-19.16
-20.06
-19.95
-18.63
-16.24
-13.18
-9.93
-6.84
-4.00
-1.28
1.56
4.57
7.57
10.19
12.01
12.82
12.75
12.21
11.69
11.58
11.95
12.58
13.11
13.28
13.04
12.53
11.97
11.57
11.32
11.05
10.50
9.51
8.07
6.35
4.65
3.21
2.11
1.23
0.34
-0.74
-2.03
-3.39
-4.60
-5.58
-6.50
-7.68
-9.44
-11.88
-14.72
-17.39
-19.27
-19.94
-19.34
-17.80
-15.84
-13.86
-12.01
-10.11
-7.78
-4.80
-1.22
2.58
6.03
8.66
10.33
11.23
11.76
12.27
12.87
13.45
13.79
13.77
13.47
13.16
13.14
13.56
14.28
14.94
15.11
14.50
13.14
11.35
9.64
8.41
7.78
7.57
7.36
6.76
5.59
3.98
2.28
0.81
-0.28
-1.11
-1.99
-3.20
-4.82
-6.68
-8.46
-9.92
-11.08
-12.18
-13.55
-15.30
-17.17
-18.64
-19.08
-18.16
-16.00
-13.10
-10.03
-7.15
-4.48
-1.77
1.21
4.45
7.61
10.26
12.06
13.01
13.38
13.59
13.91
14.39
14.81
14.86
14.40
13.52
12.52
11.79
11.60
11.93
12.49
12.85
12.64
11.73
10.25
8.57
7.04
5.87
5.01
4.21
3.21
1.85
0.20
-1.49
-2.97
-4.13
-5.03
-5.93
-7.10
-8.66
-10.55
-12.55
-14.41
-16.00
-17.39
-18.74
-20.15
-21.59
-22.76
-23.26
-22.74
-21.11
-18.57
-15.51
-12.36
-9.38
-6.60
-3.90
-1.19
1.52
3.99
5.93
7.14
7.60
7.53
7.29
7.23
7.53
8.14
8.86
9.40
9.61
9.48
9.18
8.93
8.84
8.89
8.86
8.52
7.76
6.67
5.50
4.52
3.80
3.21
2.49
1.39
-0.14
-1.90
-3.59
-4.91
-5.80
-6.47
-7.25
-8.44
-10.13
-12.13
-14.06
-15.56
-16.41
-16.62
-16.38
-15.81
-14.93
-13.60
-11.67
-9.05
-5.93
-2.65
0.36
2.83
4.67
6.00
7.01
7.87
8.61
9.20
9.53
9.55
9.33
8.99
8.73
8.69
8.89
9.20
9.36
9.14
8.47
7.46
6.38
5.49
4.87
4.38
3.74
2.72
1.27
-0.37
-1.84
-2.86
-3.38
-3.65
-4.10
-5.10
-6.78
-8.97
-11.32
-13.48
-15.26
-16.69
-17.89
-18.94
-19.72
-19.94
-19.23
-17.35
-14.40
-10.78
-7.06
-3.77
-1.15
0.89
2.64
4.45
6.41
8.37
9.96
10.88
11.05
10.68
10.17
9.89
9.95
10.22
10.44
10.37
10.00
9.47
9.02
8.75
8.58
8.25
7.48
6.19
4.50
2.69
1.08
-0.16
-1.07
-1.86
-2.75
-3.88
-5.21
-6.61
-7.96
-9.21
-10.47
-11.92
-13.73
-15.86
-18.08
-19.96
-21.03
-20.98
-19.76
-17.64
-15.07
-12.44
-9.95
-7.54
-4.95
-1.99
1.35
4.75
7.77
9.97
11.17
11.53
11.44
11.30
11.35
11.55
11.63
11.38
10.73
9.84
9.04
8.59
8.53
8.64
8.55
7.99
6.91
5.53
4.16
3.03
2.12
1.18
-0.10
-1.84
-3.89
-5.84
-7.26
-7.94
-8.01
-7.90
-8.17
-9.16
-10.91
-13.14
-15.38
-17.19
-18.32
-18.72
-18.47
-17.66
-16.30
-14.36
-11.77
-8.58
-5.01
-1.41
1.82
4.42
6.38
7.84
9.10
10.38
11.73
12.97
13.84
14.16
13.97
13.51
13.14
13.11
13.44
13.90
14.17
13.96
13.21
12.09
10.89
9.88
9.13
8.52
7.75
6.60
5.00
3.13
1.37
0.02
-0.78
-1.21
-1.63
-2.36
-3.54
-5.03
-6.54
-7.84
-8.94
-10.07
-11.56
-13.49
-15.63
-17.41
-18.21
-17.63
-15.73
-12.99
-10.03
-7.34
-5.01
-2.85
-0.50
2.23
5.25
8.19
10.60
12.18
12.89
12.95
12.70
12.42
12.24
12.14
11.98
11.67
11.20
10.68
10.29
10.15
10.25
10.41
10.33
9.76
8.68
7.27
5.89
4.82
4.10
3.48
2.58
1.12
-0.87
-3.11
-5.12
-6.61
-7.54
-8.24
-9.18
-10.75
-13.04
-15.82
-18.65
-21.04
-22.62
-23.32
-23.23
-22.56
-21.44
-19.89
-17.84
-15.25
-12.30
-9.36
-6.89
-5.19
-4.30
-3.93
-3.69
-3.27
-2.67
-2.05
-1.65
-1.48
-1.32
-0.79
0.38
2.21
4.34
6.23
7.39
7.59
6.99
5.99
5.04
4.46
4.24
4.15
3.87
3.19
2.16
1.01
0.08
-0.44
-0.60
-0.72
-1.14
-2.12
-3.63
-5.43
-7.17
-8.56
-9.52
-10.06
-10.23
-9.97
-9.12
-7.49
-5.02
-1.90
1.50
4.71
7.35
9.32
10.75
11.93
13.10
14.34
15.51
16.34
16.56
16.15
15.30
14.38
13.74
13.57
13.80
14.17
14.32
14.03
13.25
12.13
10.94
9.90
9.09
8.39
7.54
6.27
4.45
2.20
-0.23
-2.55
-4.63
-6.62
-8.83
-11.56
-14.87
-18.57
-22.26
-25.52
-28.10
-29.98
-31.28
-32.16
-32.68
-32.74
-32.22
-31.07
-29.38
-27.39
-25.41
-23.70
-22.37
-21.33
-20.42
-19.47
-18.45
-17.41
-16.36
-15.18
-13.54
-10.99
-7.26
-2.42
2.99
8.13
12.14
14.47
15.19
14.88
14.43
14.58
15.69
17.62
19.90
21.97
23.39
24.00
23.85
23.04
21.71
19.93
17.78
15.39
12.88
10.33
7.69
4.77
1.35
-2.70
-7.22
-11.78
-15.78
-18.63
-19.94
-19.65
-18.08
-15.69
-12.96
-10.17
-7.39
-4.53
-1.50
1.67
4.85
7.85
10.57
13.05
15.39
17.64
19.69
21.26
21.97
21.60
20.24
18.28
16.30
14.84
14.23
14.48
15.37
16.49
17.51
18.17
18.36
18.11
17.56
16.87
16.18
15.59
15.12
14.73
14.35
13.92
13.39
12.72
11.86
10.75
9.36
7.79
6.26
5.12
4.67
5.08
6.28
8.01
9.90
11.62
12.98
13.91
14.50
14.91
15.36
15.99
16.90
18.07
19.33
20.43
21.12
21.22
20.71
19.71
18.41
17.03
15.73
14.60
13.67
12.87
12.09
11.19
10.10
8.88
7.79
7.15
7.20
7.91
8.88
9.47
9.08
7.50
4.97
2.14
-0.33
-2.09
-3.25
-4.29
-5.68
-7.63
-9.89
-11.91
-13.18
-13.42
-12.78
-11.72
-10.75
-10.18
-10.02
-10.01
-9.75
-8.95
-7.51
-5.64
-3.76
-2.33
-1.75
-2.22
-3.75
-6.20
-9.33
-12.85
-16.39
-19.57
-21.98
-23.34
-23.64
-23.21
-22.67
-22.80
-24.15
-26.89
-30.69
-34.86
-38.62
-41.36
-42.88
-43.32
-43.00
-42.22
-41.10
-39.54
-37.31
-34.28
-30.50
-26.27
-21.92
-17.73
-13.72
-9.68
-5.28
-0.33
5.15
10.84
16.40
21.62
26.57
31.45
36.38
41.21
45.40
48.34
49.62
49.34
48.15
46.94
46.48
47.02
48.22
49.27
49.36
47.99
45.16
41.29
36.98
32.72
28.75
25.06
21.45
17.77
13.89
9.79
5.48
0.92
-3.91
-9.08
-14.58
-20.30
-26.07
-31.62
-36.70
-41.05
-44.48
-46.86
-48.12
-48.25
-47.28
-45.25
-42.31
-38.70
-34.81
-31.10
-27.92
-25.46
-23.60
-22.00
-20.29
-18.19
-15.69
-12.94
-10.15
-7.44
-4.84
-2.40
-0.24
1.34
2.02
1.60
0.21
-1.67
-3.34
-4.17
-3.80
-2.37
-0.41
1.30
2.12
1.76
0.42
-1.37
-3.03
-4.25
-5.13
-6.08
-7.50
-9.49
-11.75
-13.69
-14.75
-14.69
-13.64
-12.01
-10.18
-8.32
-6.32
-3.97
-1.14
2.02
5.09
7.55
9.06
9.60
9.51
9.32
9.50
10.21
11.28
12.30
12.89
12.91
12.48
11.88
11.36
10.96
10.46
9.53
7.96
5.80
3.36
1.09
-0.67
-1.82
-2.54
-3.21
-4.18
-5.62
-7.45
-9.44
-11.32
-12.94
-14.28
-15.38
-16.19
-16.50
-16.01
-14.50
-11.98
-8.75
-5.31
-2.14
0.51
2.69
4.64
6.66
8.82
10.94
12.65
13.59
13.61
12.89
11.85
10.98
10.60
10.75
11.14
11.38
11.15
10.37
9.22
7.97
6.81
5.75
4.59
3.11
1.23
-0.91
-2.97
-4.60
-5.62
-6.17
-6.62
-7.45
-8.92
-10.96
-13.15
-14.86
-15.48
-14.70
-12.58
-9.48
-5.85
-2.06
1.65
5.21
8.51
11.37
13.52
14.72
14.93
14.37
13.46
12.65
12.23
12.16
12.14
11.76
10.78
9.27
7.60
6.27
5.68
5.86
6.48
6.98
6.86
5.86
4.12
2.05
0.13
-1.34
-2.36
-3.18
-4.17
-5.56
-7.37
-9.30
-10.94
-11.94
-12.13
-11.64
-10.70
-9.58
-8.35
-6.93
-5.13
-2.84
-0.14
2.69
5.34
7.60
9.42
10.87
12.05
12.94
13.43
13.35
12.67
11.55
10.32
9.31
8.77
8.67
8.76
8.72
8.32
7.57
6.65
5.84
5.32
4.98
4.50
3.46
1.61
-1.01
-4.07
-7.06
-9.57
-11.42
-12.66
-13.44
-13.84
-13.76
-13.00
-11.41
-9.07
-6.37
-3.89
-2.11
-1.21
-0.93
-0.70
0.06
1.60
3.72
5.87
7.43
8.07
7.86
7.16
6.35
5.64
5.01
4.31
3.49
2.69
2.21
2.30
3.03
4.17
5.31
5.97
5.78
4.60
2.58
0.07
-2.45
-4.62
-6.22
-7.31
-8.03
-8.48
-8.56
-8.03
-6.63
-4.31
-1.30
1.96
4.97
7.48
9.48
11.13
12.59
13.87
14.82
15.23
15.00
14.24
13.22
12.26
11.59
11.27
11.21
11.22
11.15
10.98
10.73
10.50
10.30
10.08
9.73
9.14
8.23
6.96
5.36
3.41
1.14
-1.45
-4.27
-7.22
-10.16
-12.96
-15.46
-17.46
-18.81
-19.42
-19.39
-18.95
-18.39
-17.87
-17.37
-16.69
-15.62
-14.10
-12.29
-10.45
-8.85
-7.55
-6.49
-5.52
-4.57
-3.72
-3.11
-2.92
-3.15
-3.67
-4.25
-4.67
-4.78
-4.59
-4.24
-3.93
-3.90
-4.27
-5.02
-5.96
-6.78
-7.24
-7.32
-7.27
-7.51
-8.41
-10.04
-12.05
-13.78
-14.59
-14.11
-12.41
-9.92
-7.10
-4.25
-1.38
1.65
4.98
8.52
11.99
15.01
17.28
18.68
19.35
19.54
19.53
19.48
19.41
19.19
18.69
17.83
16.62
15.18
13.62
12.02
10.38
8.68
6.94
5.23
3.66
2.27
0.95
-0.49
-2.28
-4.51
-7.06
-9.65
-11.96
-13.83
-15.23
-16.31
-17.15
-17.69
-17.64
-16.71
-14.73
-11.85
-8.53
-5.38
-2.92
-1.37
-0.61
-0.33
-0.16
0.07
0.33
0.43
0.19
-0.39
-1.14
-1.74
-1.92
-1.59
-0.86
-0.06
0.50
0.61
0.30
-0.23
-0.71
-0.93
-0.88
-0.73
-0.77
-1.24
-2.21
-3.58
-5.09
-6.49
-7.64
-8.58
-9.48
-10.46
-11.49
-12.30
-12.51
-11.81
-10.08
-7.52
-4.54
-1.56
1.10
3.33
5.17
6.67
7.78
8.38
8.34
7.67
6.55
5.31
4.28
3.67
3.48
3.53
3.52
3.26
2.68
1.89
1.05
0.30
-0.37
-1.07
-1.96
-3.07
-4.32
-5.45
-6.21
-6.49
-6.38
-6.26
-6.53
-7.46
-8.98
-10.63
-11.78
-11.88
-10.73
-8.59
-6.04
-3.62
-1.63
-0.03
1.51
3.29
5.34
7.40
9.04
9.91
9.94
9.36
8.54
7.81
7.30
6.93
6.51
5.89
5.09
4.28
3.67
3.35
3.23
3.04
2.45
1.28
-0.40
-2.28
-3.95
-5.10
-5.71
-6.01
-6.37
-7.07
-8.15
-9.32
-10.16
-10.25
-9.37
-7.56
-5.06
-2.15
0.93
4.08
7.25
10.38
13.32
15.90
17.91
19.29
20.11
20.56
20.85
21.10
21.23
21.04
20.32
18.92
16.91
14.49
11.95
9.58
7.50
5.71
4.04
2.33
0.47
-1.51
-3.47
-5.24
-6.78
-8.17
-9.63
-11.36
-13.46
-15.81
-18.15
-20.16
-21.64
-22.47
-22.66
-22.19
-21.01
-19.00
-16.12
-12.44
-8.22
-3.85
0.22
3.63
6.15
7.78
8.74
9.29
9.75
10.26
10.80
11.24
11.41
11.24
10.77
10.14
9.45
8.75
7.93
6.91
5.66
4.29
3.04
2.08
1.41
0.82
-0.05
-1.46
-3.48
-5.89
-8.28
-10.32
-11.86
-13.07
-14.24
-15.59
-17.08
-18.38
-19.01
-18.58
-17.03
-14.63
-11.90
-9.28
-6.99
-4.96
-2.91
-0.65
1.75
3.98
5.58
6.25
6.01
5.18
4.26
3.64
3.44
3.44
3.32
2.78
1.81
0.64
-0.31
-0.69
-0.34
0.58
1.76
2.83
3.58
3.96
4.01
3.81
3.30
2.35
0.83
-1.21
-3.58
-5.95
-8.08
-9.86
-11.39
-12.81
-14.16
-15.25
-15.68
-15.03
-13.02
-9.73
-5.54
-1.04
3.17
6.67
9.28
11.07
12.20
12.87
13.16
13.08
12.62
11.83
10.90
10.09
9.68
9.81
10.40
11.22
11.89
12.13
11.81
10.98
9.86
8.68
7.57
6.54
5.51
4.42
3.28
2.16
1.18
0.35
-0.46
-1.50
-3.02
-5.09
-7.54
-9.96
-11.85
-12.86
-12.88
-12.07
-10.76
-9.21
-7.53
-5.65
-3.43
-0.82
2.04
4.82
7.13
8.67
9.42
9.57
9.47
9.37
9.35
9.26
8.93
8.25
7.36
6.56
6.17
6.32
6.85
7.39
7.54
7.08
6.08
4.82
3.61
2.62
1.79
0.95
-0.03
-1.12
-2.13
-2.82
-3.01
-2.75
-2.33
-2.17
-2.62
-3.81
-5.58
-7.49
-9.01
-9.70
-9.39
-8.21
-6.44
-4.37
-2.19
0.08
2.48
4.95
7.26
8.98
9.66
9.04
7.23
4.68
2.06
-0.03
-1.29
-1.82
-1.94
-2.06
-2.42
-3.04
-3.82
-4.57
-5.18
-5.54
-5.47
-4.75
-3.20
-0.81
2.11
4.95
6.97
7.53
6.41
3.80
0.25
-3.57
-7.14
-10.22
-12.84
-15.18
-17.32
-19.16
-20.41
-20.74
-20.00
-18.27
-15.92
-13.36
-10.82
-8.30
-5.58
-2.45
1.07
4.64
7.72
9.77
10.55
10.24
9.30
8.34
7.79
7.80
8.25
8.88
9.44
9.85
10.13
10.33
10.49
10.54
10.39
9.98
9.32
8.56
7.85
7.31
6.94
6.60
6.09
5.21
3.88
2.17
0.28
-1.55
-3.14
-4.40
-5.35
-6.11
-6.74
-7.23
-7.46
-7.24
-6.43
-4.99
-3.06
-0.89
1.28
3.28
5.05
6.56
7.77
8.57
8.85
8.60
7.93
7.09
6.34
5.88
5.75
5.83
5.98
6.05
5.99
5.83
5.61
5.34
5.02
4.55
3.84
2.81
1.46
-0.12
-1.71
-3.12
-4.21
-5.04
-5.84
-6.88
-8.32
-10.10
-11.96
-13.55
-14.64
-15.17
-15.28
-15.10
-14.65
-13.77
-12.21
-9.82
-6.71
-3.26
-0.01
2.49
3.95
4.37
4.04
3.38
2.72
2.24
1.90
1.50
0.90
0.04
-0.97
-1.93
-2.65
-2.98
-2.87
-2.30
-1.27
0.22
2.09
4.13
5.98
7.20
7.42
6.53
4.75
2.64
0.90
0.11
0.44
1.54
2.67
3.02
2.12
0.08
-2.50
-4.73
-5.97
-6.03
-5.27
-4.31
-3.63
-3.39
-3.31
-2.96
-2.00
-0.45
1.39
3.09
4.32
5.01
5.31
5.39
5.35
5.11
4.53
3.50
2.13
0.68
-0.51
-1.17
-1.26
-1.01
-0.83
-1.14
-2.15
-3.80
-5.73
-7.44
-8.53
-8.85
-8.60
-8.19
-8.06
-8.48
-9.44
-10.75
-12.13
-13.37
-14.34
-14.93
-15.00
-14.36
-12.84
-10.39
-7.22
-3.76
-0.56
2.00
3.77
4.94
5.85
6.83
7.99
9.16
10.05
10.40
10.20
9.66
9.17
8.97
9.08
9.26
9.20
8.71
7.92
7.11
6.55
6.35
6.29
6.08
5.49
4.51
3.40
2.48
1.94
1.70
1.47
0.87
-0.36
-2.21
-4.42
-6.51
-7.98
-8.45
-7.81
-6.17
-3.88
-1.32
1.19
3.48
5.55
7.52
9.47
11.36
13.05
14.29
14.89
14.83
14.25
13.44
12.61
11.85
11.06
10.06
8.78
7.33
5.99
5.07
4.67
4.66
4.69
4.39
3.58
2.28
0.68
-1.01
-2.67
-4.37
-6.23
-8.30
-10.49
-12.61
-14.40
-15.71
-16.51
-16.92
-17.11
-17.14
-16.90
-16.17
-14.69
-12.35
-9.26
-5.73
-2.16
1.10
3.87
6.15
8.03
9.63
10.99
12.02
12.60
12.71
12.43
12.01
11.70
11.64
11.74
11.70
11.17
9.95
8.16
6.22
4.66
3.87
3.86
4.31
4.69
4.56
3.76
2.42
0.83
-0.69
-2.03
-3.23
-4.41
-5.62
-6.75
-7.54
-7.71
-7.13
-5.86
-4.22
-2.57
-1.16
-0.08
0.77
1.57
2.45
3.33
4.05
4.36
4.11
3.33
2.24
1.10
0.12
-0.65
-1.35
-2.21
-3.35
-4.70
-5.99
-6.88
-7.14
-6.82
-6.27
-5.99
-6.36
-7.45
-8.95
-10.37
-11.29
-11.57
-11.46
-11.44
-11.94
-13.15
-14.86
-16.63
-18.01
-18.75
-18.87
-18.60
-18.07
-17.28
-16.03
-14.06
-11.29
-7.91
-4.30
-0.94
1.83
3.90
5.39
6.46
7.30
7.98
8.50
8.84
9.00
9.04
9.08
9.27
9.71
10.38
11.13
11.67
11.76
11.25
10.24
9.00
7.83
6.95
6.37
5.87
5.17
4.14
2.78
1.29
-0.14
-1.49
-2.89
-4.50
-6.34
-8.17
-9.51
-9.91
-9.19
-7.51
-5.37
-3.32
-1.70
-0.51
0.47
1.54
2.83
4.20
5.36
5.99
5.94
5.33
4.49
3.79
3.44
3.35
3.26
2.80
1.83
0.46
-0.96
-2.06
-2.68
-3.00
-3.46
-4.47
-6.18
-8.36
-10.52
-12.19
-13.17
-13.68
-14.23
-15.35
-17.32
-20.01
-23.02
-25.78
-27.87
-29.08
-29.43
-28.99
-27.90
-26.17
-23.84
-21.01
-17.85
-14.65
-11.71
-9.22
-7.21
-5.59
-4.17
-2.83
-1.59
-0.66
-0.36
-0.92
-2.32
-4.30
-6.31
-7.79
-8.27
-7.64
-6.11
-4.14
-2.26
-0.82
0.09
0.62
1.00
1.36
1.66
1.75
1.51
0.97
0.30
-0.33
-0.85
-1.42
-2.26
-3.49
-4.94
-6.18
-6.69
-6.16
-4.62
-2.46
-0.25
1.57
2.82
3.61
4.29
5.19
6.50
8.18
10.05
11.86
13.49
14.91
16.22
17.51
18.75
19.75
20.26
20.14
19.45
18.43
17.44
16.73
16.33
16.03
15.54
14.65
13.37
11.90
10.57
9.58
8.96
8.50
7.88
6.85
5.39
3.71
2.19
1.17
0.76
0.80
0.91
0.74
0.06
-1.06
-2.41
-3.76
-5.02
-6.21
-7.44
-8.67
-9.65
-9.97
-9.25
-7.36
-4.46
-1.01
2.46
5.55
8.14
10.29
12.14
13.80
15.22
16.26
16.78
16.73
16.25
15.55
14.89
14.46
14.29
14.30
14.28
14.06
13.55
12.82
12.04
11.41
11.00
10.69
10.20
9.28
7.81
5.96
4.02
2.35
1.08
0.17
-0.58
-1.34
-2.15
-2.95
-3.66
-4.35
-5.24
-6.58
-8.46
-10.66
-12.66
-13.84
-13.71
-12.15
-9.44
-6.08
-2.66
0.41
3.00
5.20
7.21
9.17
11.07
12.70
13.82
14.23
13.95
13.21
12.31
11.54
11.00
10.57
10.03
9.22
8.09
6.78
5.47
4.31
3.30
2.34
1.29
0.08
-1.23
-2.55
-3.79
-4.98
-6.24
-7.77
-9.66
-11.85
-14.09
-16.03
-17.36
-17.91
-17.72
-17.00
-16.03
-14.96
-13.75
-12.20
-10.03
-7.10
-3.53
0.31
3.90
6.82
8.95
10.44
11.62
12.75
13.89
14.82
15.25
14.95
13.99
12.67
11.43
10.62
10.38
10.54
10.75
10.65
10.06
9.04
7.83
6.69
5.76
4.98
4.15
3.05
1.62
-0.07
-1.78
-3.31
-4.55
-5.55
-6.48
-7.55
-8.88
-10.47
-12.21
-13.94
-15.53
-16.93
-18.18
-19.24
-20.04
-20.35
-19.89
-18.49
-16.15
-13.11
-9.75
-6.42
-3.33
-0.58
1.85
3.95
5.65
6.82
7.39
7.41
7.06
6.62
6.38
6.51
7.01
7.68
8.26
8.55
8.49
8.20
7.90
7.71
7.58
7.25
6.39
4.82
2.60
0.10
-2.23
-4.00
-5.10
-5.71
-6.17
-6.87
-8.03
-9.70
-11.70
-13.73
-15.47
-16.67
-17.14
-16.82
-15.68
-13.74
-11.08
-7.87
-4.43
-1.14
1.65
3.70
5.04
5.89
6.57
7.28
8.04
8.66
8.96
8.85
8.45
7.99
7.71
7.67
7.74
7.69
7.34
6.65
5.77
4.94
4.35
4.03
3.83
3.48
2.81
1.79
0.60
-0.48
-1.23
-1.67
-2.02
-2.66
-3.85
-5.62
-7.68
-9.52
-10.68
-10.94
-10.39
-9.37
-8.22
-7.10
-5.90
-4.39
-2.34
0.24
3.06
5.62
7.44
8.28
8.27
7.81
7.41
7.39
7.78
8.31
8.62
8.44
7.73
6.68
5.56
4.54
3.64
2.75
1.73
0.62
-0.45
-1.28
-1.77
-2.03
-2.37
-3.15
-4.55
-6.47
-8.58
-10.45
-11.81
-12.66
-13.30
-14.04
-15.04
-16.13
-16.87
-16.76
-15.46
-12.99
-9.72
-6.17
-2.81
0.08
2.46
4.41
5.98
7.13
7.76
7.81
7.38
6.69
6.06
5.76
5.86
6.22
6.55
6.58
6.14
5.29
4.23
3.19
2.36
1.77
1.31
0.79
0.08
-0.86
-1.95
-3.08
-4.20
-5.35
-6.68
-8.39
-10.55
-13.02
-15.44
-17.31
-18.17
-17.80
-16.32
-14.12
-11.68
-9.36
-7.26
-5.24
-3.08
-0.68
1.85
4.20
6.03
7.14
7.57
7.56
7.39
7.23
7.10
6.86
6.39
5.69
4.85
4.04
3.34
2.69
1.92
0.84
-0.63
-2.32
-3.93
-5.12
-5.72
-5.89
-6.01
-6.58
-7.92
-10.02
-12.49
-14.78
-16.34
-16.91
-16.51
-15.35
-13.67
-11.60
-9.13
-6.24
-2.99
0.36
3.49
6.07
7.96
9.21
10.02
10.59
11.04
11.30
11.24
10.75
9.85
8.73
7.69
7.02
6.85
7.10
7.47
7.58
7.18
6.23
4.97
3.74
2.79
2.16
1.65
0.94
-0.22
-1.86
-3.80
-5.79
-7.65
-9.34
-10.91
-12.33
-13.41
-13.80
-13.22
-11.55
-8.98
-5.94
-2.91
-0.25
1.95
3.85
5.69
7.63
9.58
11.29
12.48
12.97
12.87
12.50
12.26
12.44
13.09
14.01
14.86
15.33
15.26
14.71
13.91
13.11
12.50
12.11
11.83
11.49
10.95
10.18
9.25
8.27
7.25
6.08
4.55
2.50
-0.08
-2.99
-5.87
-8.37
-10.21
-11.31
-11.68
-11.41
-10.56
-9.13
-7.14
-4.65
-1.82
1.08
3.76
5.99
7.69
8.91
9.85
10.68
11.48
12.18
12.61
12.60
12.16
11.44
10.67
10.07
9.66
9.32
8.81
7.98
6.83
5.49
4.19
3.09
2.23
1.51
0.79
-0.05
-1.00
-1.95
-2.76
-3.35
-3.77
-4.23
-5.07
-6.56
-8.79
-11.55
-14.34
-16.53
-17.57
-17.25
-15.73
-13.43
-10.84
-8.27
-5.80
-3.33
-0.76
1.83
4.21
6.11
7.38
8.06
8.40
8.65
8.97
9.35
9.62
9.68
9.52
9.26
9.07
9.07
9.20
9.25
8.98
8.20
6.95
5.38
3.79
2.42
1.36
0.53
-0.29
-1.27
-2.49
-3.85
-5.19
-6.37
-7.43
-8.54
-9.98
-11.85
-14.01
-16.05
-17.39
-17.59
-16.50
-14.32
-11.52
-8.60
-5.88
-3.50
-1.36
0.64
2.55
4.25
5.57
6.38
6.71
6.72
6.63
6.62
6.70
6.71
6.46
5.78
4.70
3.41
2.22
1.43
1.19
1.43
1.95
2.45
2.70
2.62
2.24
1.66
0.94
0.06
-1.05
-2.43
-3.99
-5.57
-6.96
-8.02
-8.84
-9.61
-10.57
-11.79
-13.06
-13.94
-13.96
-12.82
-10.60
-7.70
-4.71
-2.10
-0.05
1.55
3.01
4.55
6.17
7.64
8.62
8.95
8.72
8.23
7.90
7.92
8.24
8.58
8.59
8.14
7.31
6.44
5.84
5.66
5.78
5.83
5.44
4.40
2.78
0.88
-0.92
-2.35
-3.32
-3.95
-4.47
-5.06
-5.83
-6.77
-7.80
-8.86
-9.94
-11.05
-12.12
-12.96
-13.31
-12.91
-11.63
-9.56
-7.02
-4.41
-2.12
-0.34
0.96
1.97
2.92
3.96
5.02
5.92
6.42
6.41
5.98
5.36
4.88
4.78
5.04
5.42
5.57
5.23
4.38
3.26
2.23
1.56
1.30
1.27
1.21
0.90
0.33
-0.40
-1.16
-1.91
-2.77
-3.92
-5.48
-7.42
-9.50
-11.37
-12.68
-13.18
-12.83
-11.77
-10.31
-8.78
-7.38
-6.06
-4.59
-2.68
-0.22
2.62
5.42
7.69
9.16
9.87
10.13
10.33
10.66
11.06
11.32
11.28
10.92
10.41
9.96
9.69
9.52
9.25
8.66
7.65
6.27
4.68
3.07
1.55
0.08
-1.47
-3.27
-5.40
-7.78
-10.22
-12.44
-14.24
-15.61
-16.68
-17.64
-18.53
-19.19
-19.27
-18.41
-16.45
-13.55
-10.13
-6.76
-3.89
-1.71
-0.13
1.10
2.18
3.21
4.09
4.66
4.83
4.68
4.42
4.31
4.48
4.87
5.25
5.37
5.09
4.47
3.68
2.91
2.20
1.46
0.46
-0.96
-2.75
-4.67
-6.35
-7.51
-8.09
-8.34
-8.69
-9.56
-11.10
-13.11
-15.07
-16.37
-16.53
-15.45
-13.40
-10.88
-8.38
-6.12
-4.06
-1.96
0.36
2.89
5.32
7.23
8.33
8.60
8.33
7.96
7.80
7.91
8.09
8.05
7.67
7.03
6.36
5.90
5.68
5.53
5.14
4.28
2.93
1.26
-0.44
-1.94
-3.15
-4.18
-5.21
-6.37
-7.67
-8.97
-10.07
-10.80
-11.15
-11.23
-11.24
-11.35
-11.54
-11.58
-11.15
-9.94
-7.86
-5.04
-1.84
1.42
4.51
7.46
10.45
13.66
17.06
20.41
23.26
25.23
26.17
26.23
25.84
25.41
25.17
25.03
24.74
23.99
22.68
20.94
19.07
17.33
15.81
14.36
12.76
10.87
8.76
6.67
4.89
3.52
2.42
1.20
-0.60
-3.26
-6.78
-10.81
-14.84
-18.28
-20.78
-22.15
-22.45
-21.83
-20.43
-18.40
-15.82
-12.85
-9.70
-6.68
-4.05
-1.97
-0.43
0.70
1.58
2.28
2.73
2.78
2.28
1.25
-0.07
-1.32
-2.16
-2.41
-2.15
-1.66
-1.27
-1.21
-1.51
-2.03
-2.57
-3.02
-3.40
-3.86
-4.54
-5.50
-6.69
-7.95
-9.14
-10.15
-11.05
-11.99
-13.21
-14.83
-16.77
-18.71
-20.18
-20.75
-20.22
-18.71
-16.55
-14.12
-11.59
-8.94
-6.06
-2.90
0.33
3.24
5.44
6.71
7.14
7.08
6.92
6.98
7.33
7.84
8.31
8.56
8.59
8.48
8.41
8.49
8.71
8.97
9.13
9.08
8.82
8.44
8.07
7.74
7.38
6.87
6.07
4.93
3.50
1.88
0.21
-1.53
-3.53
-5.96
-8.83
-11.76
-14.16
-15.31
-14.68
-12.09
-7.85
-2.69
2.56
7.24
11.02
13.80
15.74
17.10
18.19
19.17
19.67
19.32
18.00
15.91
13.53
11.53
10.60
11.26
13.63
16.66
19.19
20.53
20.49
19.19
16.99
14.51
12.52
11.73
11.68
12.07
13.06
14.77
16.42
16.31
12.42
3.31
-11.25
-31.25
-54.82
-78.35
-97.98
-111.21
-117.57
-118.03
-114.27
-99.73
-73.44
-40.98
-10.75
11.73
24.84
29.28
27.08
21.04
14.14
7.47
1.73
-2.18
-3.37
-1.35
3.70
11.14
19.82
28.35
34.47
37.03
36.47
34.16
31.15
27.87
24.48
21.32
19.10
17.97
17.93
18.83
20.11
20.75
19.71
16.50
11.28
4.86
-1.88
-7.92
-12.27
-14.37
-14.38
-13.14
-11.76
-11.13
-11.65
-12.88
-13.94
-13.74
-11.47
-6.99
-0.88
5.69
11.31
14.88
15.99
15.07
13.28
12.09
12.66
15.45
19.84
24.25
27.01
27.07
24.48
20.36
16.51
13.94
12.96
13.11
13.41
13.07
11.85
10.09
8.49
7.56
7.28
7.22
6.91
6.05
4.82
3.82
3.75
5.13
8.00
11.96
16.31
20.21
22.79
23.18
20.64
14.69
5.45
-5.98
-17.89
-28.38
-36.09
-40.53
-42.16
-41.88
-40.59
-38.79
-36.59
-33.98
-31.11
-28.41
-26.48
-25.76
-26.32
-27.68
-29.08
-29.77
-29.35
-27.94
-26.06
-24.42
-23.60
-23.90
-25.42
-28.03
-31.33
-34.46
-36.06
-34.50
-28.62
-18.35
-5.11
8.61
20.13
27.70
31.03
31.10
29.44
27.26
25.09
22.81
20.13
17.01
13.80
10.95
8.81
7.52
7.16
7.86
9.80
13.15
17.69
22.72
27.08
29.55
29.34
26.45
21.77
16.58
12.09
8.88
6.78
5.18
3.46
1.46
-0.57
-2.06
-2.81
-2.81
-2.16
-0.83
1.47
5.15
10.33
16.33
22.27
26.90
29.30
29.23
27.23
24.28
21.41
19.42
18.54
18.79
20.10
22.51
26.02
30.18
33.79
34.94
31.74
23.33
10.65
-3.69
-16.43
-25.05
-28.79
-28.68
-26.62
-24.28
-22.39
-20.96
-19.87
-19.42
-20.23
-22.66
-26.28
-29.85
-31.84
-31.29
-28.17
-23.44
-18.52
-14.71
-12.82
-12.97
-14.66
-16.96
-18.76
-19.00
-17.07
-13.08
-7.80
-2.40
2.03
4.95
6.48
7.28
8.08
9.36
11.12
12.98
14.49
15.30
15.28
14.51
13.14
11.29
9.10
6.69
4.31
2.21
0.66
-0.21
-0.49
-0.46
-0.50
-0.98
-2.04
-3.58
-5.26
-6.64
-7.36
-7.31
-6.62
-5.62
-4.66
-4.07
-4.06
-4.72
-5.94
-7.45
-8.83
-9.64
-9.49
-8.18
-5.80
-2.68
0.71
3.87
6.43
8.23
9.24
9.58
9.49
9.23
8.99
8.87
8.85
8.80
8.63
8.35
7.64
6.59
5.43
4.41
3.68
3.24
2.97
2.66
2.14
1.33
0.34
-0.73
-1.77
-2.77
-3.74
-4.71
-5.64
-6.41
-6.96
-7.25
-7.41
-7.66
-8.22
-9.20
-10.57
-12.19
-13.89
-15.48
-16.79
-17.60
-17.68
-16.86
-15.02
-12.31
-9.06
-5.77
-2.89
-0.66
0.99
2.36
3.84
5.72
7.95
10.18
11.85
12.44
11.74
10.00
7.84
6.04
5.25
5.71
7.23
9.27
11.26
12.77
13.67
14.03
14.01
13.66
12.92
11.64
9.78
7.51
5.17
3.16
1.69
0.66
-0.34
-1.78
-3.97
-6.88
-10.12
-13.12
-15.30
-16.34
-16.17
-14.94
-12.90
-10.27
-7.20
-3.84
-0.31
3.20
6.50
9.37
11.67
13.38
14.58
15.42
16.03
16.46
16.67
16.59
16.16
15.40
14.44
13.45
12.58
11.90
11.39
10.93
10.42
9.76
8.90
7.80
6.46
4.90
3.11
1.13
-0.99
-3.19
-5.36
-7.37
-9.11
-10.54
-11.72
-12.78
-13.87
-14.97
-15.86
-16.22
-15.71
-14.23
-11.95
-9.21
-6.38
-3.65
-1.04
1.56
4.17
6.65
8.73
10.15
10.79
10.74
10.24
9.53
8.77
7.98
7.10
6.05
4.86
3.64
2.52
1.59
0.79
-0.01
-1.02
-2.37
-4.10
-6.07
-8.07
-9.84
-11.16
-11.93
-12.18
-12.10
-11.97
-12.07
-12.55
-13.36
-14.26
-14.90
-14.95
-14.22
-12.68
-10.42
-7.66
-4.62
-1.57
1.29
3.74
5.62
6.83
7.39
7.45
7.21
6.91
6.73
6.68
6.66
6.48
5.99
5.17
4.17
3.20
2.44
1.96
1.70
1.55
1.43
1.29
1.13
0.90
0.48
-0.21
-1.25
-2.58
-4.04
-5.46
-6.74
-7.94
-9.20
-10.68
-12.45
-14.44
-16.44
-18.14
-19.23
-19.42
-18.56
-16.68
-14.02
-10.92
-7.76
-4.80
-2.13
0.33
2.66
4.86
6.77
8.15
8.85
8.84
8.35
7.66
7.01
6.48
5.98
5.36
4.56
3.66
2.89
2.44
2.38
2.55
2.63
2.34
1.54
0.33
-1.03
-2.28
-3.28
-4.08
-4.85
-5.73
-6.79
-8.00
-9.24
-10.40
-11.43
-12.23
-12.68
-12.60
-11.82
-10.22
-7.79
-4.67
-1.12
2.55
6.06
9.16
11.70
13.65
15.03
15.95
16.46
16.59
16.35
15.80
15.07
14.37
13.91
13.74
13.76
13.69
13.32
12.57
11.59
10.64
9.95
9.55
9.20
8.55
7.32
5.48
3.29
1.12
-0.67
-1.99
-3.01
-4.05
-5.41
-7.24
-9.42
-11.69
-13.71
-15.16
-15.84
-15.66
-14.64
-12.86
-10.49
-7.73
-4.80
-1.89
0.84
3.27
5.30
6.87
7.97
8.62
8.93
9.01
9.00
8.94
8.82
8.59
8.15
7.47
6.59
5.61
4.66
3.82
3.04
2.24
1.32
0.26
-0.86
-1.91
-2.82
-3.62
-4.47
-5.55
-6.94
-8.58
-10.26
-11.79
-13.05
-14.13
-15.16
-16.26
-17.33
-18.09
-18.13
-17.10
-14.91
-11.74
-8.05
-4.30
-0.89
1.99
4.34
6.21
7.64
8.64
9.18
9.29
9.06
8.70
8.38
8.20
8.11
7.96
7.54
6.74
5.62
4.34
3.16
2.22
1.54
0.93
0.17
-0.90
-2.29
-3.83
-5.27
-6.44
-7.31
-8.00
-8.74
-9.69
-10.88
-12.16
-13.30
-14.06
-14.32
-14.05
-13.28
-12.04
-10.30
-7.99
-5.10
-1.75
1.78
5.11
7.88
9.84
10.96
11.41
11.45
11.27
11.00
10.63
10.09
9.33
8.41
7.45
6.61
5.98
5.55
5.20
4.75
4.07
3.13
2.00
0.81
-0.35
-1.46
-2.57
-3.79
-5.14
-6.57
-7.98
-9.27
-10.42
-11.53
-12.74
-14.07
-15.38
-16.33
-16.51
-15.62
-13.60
-10.67
-7.19
-3.56
-0.05
3.28
6.43
9.39
12.07
14.28
15.80
16.55
16.59
16.16
15.57
15.06
14.73
14.47
14.13
13.55
12.70
11.69
10.67
9.77
9.00
8.27
7.41
6.30
4.88
3.22
1.49
-0.16
-1.65
-2.98
-4.27
-5.69
-7.32
-9.18
-11.15
-13.09
-14.86
-16.40
-17.66
-18.55
-18.88
-18.35
-16.75
-13.95
-10.16
-5.78
-1.38
2.54
5.68
7.97
9.57
10.68
11.41
11.79
11.74
11.22
10.31
9.23
8.29
7.73
7.59
7.72
7.83
7.64
7.06
6.20
5.28
4.51
3.96
3.53
2.99
2.16
1.00
-0.38
-1.82
-3.16
-4.42
-5.70
-7.19
-8.96
-10.97
-13.04
-14.92
-16.34
-17.09
-17.02
-16.06
-14.20
-11.51
-8.14
-4.27
-0.12
4.02
7.80
10.87
12.98
14.03
14.18
13.77
13.21
12.80
12.62
12.59
12.51
12.26
11.83
11.34
10.91
10.58
10.24
9.74
8.93
7.84
6.60
5.42
4.45
3.67
2.95
2.08
0.95
-0.43
-1.92
-3.37
-4.70
-5.98
-7.35
-8.95
-10.80
-12.78
-14.65
-16.08
-16.76
-16.50
-15.27
-13.17
-10.42
-7.24
-3.80
-0.23
3.38
6.87
10.02
12.58
14.37
15.33
15.59
15.38
14.96
14.52
14.13
13.76
13.34
12.80
12.17
11.52
10.98
10.64
10.51
10.45
10.24
9.66
8.61
7.17
5.50
3.76
2.01
0.24
-1.63
-3.60
-5.56
-7.36
-8.87
-10.12
-11.35
-12.81
-14.69
-16.86
-18.90
-20.19
-20.20
-18.64
-15.66
-11.76
-7.59
-3.71
-0.38
2.43
4.92
7.19
9.22
10.80
11.74
11.99
11.70
11.21
10.83
10.73
10.82
10.84
10.55
9.86
8.86
7.76
6.91
6.54
6.72
7.28
7.92
8.41
8.57
8.35
7.76
7.04
6.48
6.25
6.29
6.42
6.41
6.16
5.72
5.29
5.43
6.61
8.91
11.89
14.75
16.89
18.13
18.80
19.38
20.66
23.08
26.59
30.70
35.00
39.52
44.60
50.25
52.97
48.70
34.62
11.30
-17.54
-46.86
-72.01
-89.91
-99.58
-102.27
-100.04
-95.05
-88.89
-82.45
-76.22
-70.75
-66.99
-66.01
-68.10
-71.51
-72.66
-67.41
-53.16
-30.52
-3.48
21.88
40.20
49.17
50.43
48.05
45.92
45.55
45.59
43.44
37.22
27.51
16.77
7.94
2.73
1.06
2.13
5.82
13.38
26.21
44.10
63.75
79.17
83.91
74.18
50.81
18.43
-14.86
-42.69
-62.00
-72.79
-76.36
-73.49
-63.91
-47.14
-23.67
4.21
32.56
56.87
73.13
78.47
71.47
52.60
24.81
-6.75
-35.54
-55.49
-62.78
-57.29
-42.67
-24.96
-9.95
-0.84
3.13
5.29
9.76
19.40
34.11
50.75
63.75
67.31
57.70
34.99
3.32
-30.00
-57.27
-72.50
-73.59
-63.12
-47.09
-32.22
-23.25
-21.57
-25.12
-29.80
-31.35
-26.70
-15.19
1.29
18.72
31.86
35.58
26.99
6.85
-19.91
-44.60
-58.54
-55.95
-35.79
-1.65
39.64
80.54
114.32
135.24
139.33
125.04
94.27
51.97
7.25
-31.06
-56.50
-66.88
-64.55
-54.87
-43.94
-36.19
-33.35
-34.82
-38.72
-42.80
-45.30
-45.41
-43.14
-39.52
-35.87
-33.32
-32.59
-34.13
-38.13
-44.07
-50.34
-53.52
-49.48
-34.86
-9.24
23.63
56.82
83.25
98.97
104.74
104.50
101.96
97.82
89.17
72.01
44.83
10.71
-23.57
-50.81
-66.71
-71.05
-66.48
-56.11
-41.77
-23.85
-2.76
19.70
39.96
54.41
61.05
60.43
55.45
50.05
47.47
48.50
51.00
50.90
44.02
28.09
3.97
-25.04
-53.99
-78.40
-95.12
-102.33
-98.94
-84.35
-58.97
-25.11
12.47
47.37
72.86
84.66
82.04
67.79
46.97
25.04
6.18
-7.77
-17.32
-24.55
-31.85
-40.68
-50.73
-60.03
-66.05
-66.77
-62.64
-55.42
-47.49
-40.83
-36.27
-33.76
-32.95
-33.96
-37.08
-41.82
-46.07
-46.23
-38.80
-21.88
3.14
31.66
57.62
75.99
84.61
84.31
78.60
70.93
63.27
56.11
49.36
43.14
38.52
36.88
39.49
46.40
55.56
62.93
63.57
53.51
32.03
2.56
-28.30
-53.36
-67.94
-71.30
-66.81
-58.96
-50.93
-43.67
-36.70
-29.81
-23.81
-20.01
-19.05
-19.83
-19.75
-16.05
-7.60
4.80
18.76
31.70
41.73
47.74
49.39
46.89
41.04
33.30
25.64
19.95
17.26
17.05
17.44
16.01
10.99
2.17
-8.96
-19.92
-28.42
-33.25
-34.59
-33.61
-31.76
-30.15
-29.17
-28.52
-27.60
-26.12
-23.88
-21.25
-18.78
-16.75
-14.79
-11.92
-6.98
0.40
9.22
17.13
21.29
19.66
12.19
0.90
-10.94
-20.37
-26.01
-28.32
-28.87
-29.11
-29.38
-28.81
-26.22
-21.18
-14.60
-8.43
-4.63
-4.28
-7.08
-11.69
-16.46
-20.26
-22.61
-23.38
-22.25
-18.54
-11.57
-1.22
11.08
23.09
32.51
37.86
39.05
37.29
34.30
31.51
29.47
27.96
26.43
24.53
22.33
20.37
19.29
19.45
20.74
22.51
23.89
24.14
23.09
21.09
18.95
17.57
17.55
19.01
21.70
25.10
28.48
30.75
30.59
26.89
19.57
10.03
0.98
-4.77
-5.73
-2.66
1.72
4.10
2.33
-3.61
-11.83
-19.55
-24.47
-25.66
-23.52
-19.36
-14.90
-11.86
-11.81
-15.76
-23.58
-33.78
-43.77
-50.75
-52.70
-49.28
-41.83
-32.68
-24.12
-17.48
-12.97
-9.98
-7.91
-6.60
-6.30
-7.12
-8.60
-9.60
-8.64
-4.69
2.29
11.12
19.94
26.83
30.49
30.59
27.80
23.19
18.02
13.37
9.94
7.96
7.26
7.51
8.32
9.48
10.90
12.49
13.98
14.91
14.78
13.24
10.38
6.71
2.99
-0.06
-2.01
-2.86
-2.98
-2.90
-3.04
-3.51
-4.21
-4.95
-5.54
-5.89
-6.08
-6.22
-6.44
-6.84
-7.40
-8.07
-8.77
-9.45
-10.04
-10.57
-11.13
-11.85
-12.80
-13.93
-15.06
-15.94
-16.30
-15.90
-14.73
-12.95
-10.87
-8.86
-7.22
-6.15
-5.68
-5.76
-6.19
-6.87
-7.80
-9.02
-10.52
-12.17
-13.66
-14.52
-14.97
-14.87
-14.15
-12.87
-11.19
-9.34
-7.51
-5.81
-4.29
-2.96
-1.73
-0.63
0.25
0.79
0.87
0.50
-0.23
-1.19
-2.22
-3.17
-4.04
-4.89
-5.82
-6.87
-7.94
-8.84
-9.35
-9.24
-8.34
-6.61
-4.11
-1.00
2.54
6.27
9.97
13.40
16.34
18.62
20.13
20.87
20.93
20.48
19.71
18.75
17.63
16.34
14.88
13.31
11.75
10.35
9.22
8.36
7.72
7.15
6.50
5.66
4.52
3.09
1.43
-0.34
-2.04
-3.59
-4.95
-6.14
-7.20
-8.19
-9.14
-10.07
-11.05
-12.07
-13.07
-13.83
-14.03
-13.37
-11.65
-8.83
-5.10
-0.81
3.64
7.88
11.69
14.96
17.64
19.71
21.17
22.09
22.54
22.63
22.49
22.22
21.81
21.19
20.23
18.96
17.51
16.04
14.69
13.53
12.56
11.74
11.02
10.36
10.06
10.32
11.17
12.35
13.49
14.24
14.44
14.01
13.01
12.25
12.41
13.73
15.88
18.25
20.32
21.89
23.04
24.06
26.31
30.82
37.81
46.47
55.49
63.65
70.13
74.45
76.53
77.87
79.89
83.32
87.86
92.77
97.49
101.77
105.48
100.54
82.23
51.17
13.71
-22.34
-51.62
-72.17
-84.43
-90.23
-92.00
-90.90
-87.90
-84.07
-80.65
-78.65
-78.31
-79.16
-80.34
-80.94
-79.32
-74.39
-66.17
-55.83
-45.13
-35.66
-28.47
-23.98
-21.99
-21.25
-20.47
-19.04
-17.22
-15.78
-15.38
-16.12
-17.43
-18.38
-17.93
-15.83
-13.14
-11.88
-14.11
-20.63
-30.05
-38.90
-42.76
-38.21
-24.23
-3.38
19.05
36.76
44.49
39.63
22.86
-1.88
-28.28
-48.96
-57.82
-51.56
-31.00
-1.14
30.61
57.13
74.18
81.01
80.91
78.19
75.98
74.87
73.16
68.21
58.15
43.08
24.93
6.64
-9.30
-21.53
-30.14
-36.43
-41.77
-47.28
-53.15
-59.15
-64.71
-69.26
-72.10
-72.38
-69.24
-61.75
-50.58
-36.93
-22.53
-9.10
1.98
10.06
15.18
17.95
19.16
19.45
19.42
19.31
19.19
19.07
19.02
19.16
19.48
19.76
19.37
17.78
14.79
10.81
6.85
4.16
3.65
5.43
8.68
11.97
13.87
13.56
11.14
7.55
4.09
1.81
1.19
1.98
3.51
4.99
5.77
5.30
3.26
-0.51
-5.90
-12.34
-18.84
-24.14
-27.15
-27.40
-25.29
-21.85
-18.31
-15.59
-13.93
-13.07
-12.42
-11.50
-10.08
-8.11
-5.71
-2.90
0.38
4.13
8.16
11.98
14.87
16.13
15.47
13.23
10.39
8.05
7.09
7.52
8.63
9.29
8.60
6.35
3.14
-0.01
-2.13
-2.76
-2.09
-0.78
0.47
1.16
1.18
0.68
0.01
-0.58
-0.98
-1.26
-1.61
-2.14
-2.80
-3.42
-3.71
-3.47
-2.66
-1.47
-0.25
0.66
1.14
1.36
1.51
1.67
1.74
1.55
1.08
0.51
0.13
0.02
-0.16
-1.23
-4.03
-8.98
-15.41
-21.63
-25.41
-25.02
-20.05
-11.71
-2.37
5.60
10.76
13.19
14.03
14.65
15.82
17.37
18.51
18.36
16.61
13.15
8.62
3.95
0.02
-2.58
-3.67
-3.38
-2.07
-0.15
2.00
4.18
6.17
7.68
8.31
7.60
5.35
1.84
-2.02
-4.94
-5.61
-3.39
1.45
7.74
13.95
18.84
21.89
23.38
24.04
24.64
25.44
26.13
26.02
24.49
21.34
16.90
11.93
7.25
3.41
0.53
-1.67
-3.59
-5.55
-7.61
-9.65
-11.47
-13.04
-14.44
-15.83
-17.30
-18.80
-20.21
-21.44
-22.57
-23.67
-24.78
-25.64
-25.78
-24.62
-21.76
-17.20
-11.37
-4.96
1.30
6.84
11.31
14.48
16.23
16.52
15.46
13.31
10.44
7.11
3.44
-0.57
-4.96
-9.57
-14.00
-17.69
-20.10
-20.92
-20.09
-17.79
-14.32
-9.97
-5.05
0.06
4.89
8.96
11.88
13.46
13.79
13.16
11.93
10.34
8.50
6.33
3.65
0.39
-3.34
-7.15
-10.51
-12.86
-13.84
-13.40
-11.81
-9.48
-6.83
-4.16
-1.63
0.74
2.95
5.01
6.94
8.79
10.57
12.22
13.52
14.15
13.86
12.63
10.70
8.54
6.63
5.21
4.16
3.05
1.24
-1.85
-6.58
-12.86
-20.06
-27.08
-32.58
-35.36
-34.83
-31.18
-25.39
-18.91
-13.14
-9.04
-6.93
-6.56
-7.33
-8.58
-9.84
-10.90
-11.77
-12.62
-13.55
-14.56
-15.42
-15.74
-15.12
-13.30
-10.27
-6.31
-1.86
2.57
6.60
10.03
12.86
15.17
17.07
18.62
19.82
20.66
21.16
21.42
21.56
21.70
21.87
21.99
21.93
21.56
20.80
19.68
18.30
16.78
15.23
13.70
12.19
10.62
8.93
7.06
5.01
2.88
0.78
-1.18
-2.98
-4.74
-6.62
-8.77
-11.22
-13.81
-16.28
-18.38
-19.99
-21.14
-21.98
-22.61
-22.95
-22.71
-21.48
-18.99
-15.26
-10.61
-5.60
-0.72
3.72
7.67
11.27
14.67
17.84
20.62
22.74
24.02
24.39
24.00
23.10
21.99
20.92
19.96
19.02
17.91
16.39
14.34
11.85
9.17
6.60
4.39
2.61
1.15
-0.11
-1.31
-2.47
-3.57
-4.65
-5.81
-7.19
-8.88
-10.80
-12.74
-14.44
-15.70
-16.59
-17.38
-18.49
-20.23
-22.62
-25.32
-27.66
-28.94
-28.62
-26.59
-23.12
-18.69
-13.87
-9.06
-4.47
-0.16
3.85
7.55
10.90
13.85
16.38
18.44
19.97
20.90
21.16
20.72
19.63
18.00
16.02
13.91
11.88
10.11
8.68
7.60
6.80
6.18
5.65
5.16
4.68
4.17
3.61
3.02
2.41
1.85
1.37
0.91
0.38
-0.33
-1.28
-2.45
-3.76
-5.13
-6.50
-7.90
-9.40
-11.03
-12.79
-14.61
-16.39
-17.98
-19.24
-19.99
-20.07
-19.37
-17.91
-15.83
-13.34
-10.65
-7.85
-4.94
-1.87
1.32
4.45
7.20
9.29
10.60
11.30
11.76
12.30
13.05
13.77
14.04
13.48
12.04
10.10
8.35
7.42
7.61
8.71
10.13
11.16
11.33
10.57
9.19
7.67
6.35
5.31
4.35
3.14
1.45
-0.74
-3.24
-5.80
-8.26
-10.60
-12.85
-15.01
-16.95
-18.42
-19.23
-19.40
-19.17
-18.98
-19.22
-20.11
-21.56
-23.28
-24.88
-25.98
-26.33
-25.78
-24.22
-21.60
-17.84
-12.94
-7.04
-0.53
5.94
11.56
15.69
18.09
19.18
19.82
21.07
23.61
27.49
32.10
36.49
39.82
41.59
41.68
40.22
37.41
33.48
28.76
23.85
19.47
16.28
14.53
13.85
13.44
12.33
9.84
5.81
0.63
-5.02
-10.43
-15.11
-18.84
-21.66
-23.66
-24.96
-25.61
-25.67
-25.20
-24.31
-23.09
-21.60
-19.80
-17.56
-14.77
-11.34
-7.36
-3.02
1.36
5.45
8.95
11.65
13.49
14.55
15.05
15.24
15.39
15.65
16.05
16.44
16.62
16.38
15.64
14.51
13.23
12.03
11.02
10.11
9.08
7.70
5.92
3.92
2.02
0.51
-0.54
-1.25
-1.90
-2.75
-3.93
-5.42
-7.16
-9.12
-11.32
-13.79
-16.49
-19.23
-21.71
-23.61
-24.65
-24.75
-24.05
-22.82
-21.33
-19.66
-17.68
-15.05
-11.49
-6.96
-1.80
3.36
7.92
11.53
14.21
16.27
18.02
19.52
20.59
20.91
20.26
18.73
16.62
14.32
12.13
10.14
8.32
6.63
5.17
4.14
3.75
3.99
4.65
5.31
5.57
5.21
4.28
3.07
1.87
0.83
-0.13
-1.21
-2.59
-4.29
-6.12
-7.84
-9.27
-10.45
-11.59
-12.99
-14.87
-17.23
-19.88
-22.45
-24.57
-25.86
-26.05
-24.99
-22.69
-19.27
-14.95
-10.08
-5.04
-0.22
4.03
7.52
10.15
11.94
12.99
13.43
13.39
12.98
12.31
11.55
10.83
10.23
9.68
9.12
8.49
7.62
6.24
4.02
0.69
-3.81
-9.25
-15.19
-20.82
-25.26
-27.98
-29.02
-28.89
-28.25
-27.67
-27.43
-27.55
-27.44
-26.34
-23.88
-20.47
-17.23
-15.48
-16.29
-20.00
-26.18
-33.07
-38.19
-39.00
-33.69
-21.55
-3.09
19.83
45.02
67.03
80.16
82.01
74.90
63.59
52.49
44.19
39.15
36.19
33.25
28.83
22.18
13.58
4.00
-5.10
-11.94
-14.87
-12.90
-6.42
4.02
14.63
20.42
17.72
6.37
-9.99
-25.48
-34.76
-35.43
-28.66
-18.41
-8.97
-3.10
-1.23
-2.06
-3.85
-5.47
-6.57
-7.01
-6.53
-4.54
-0.69
4.46
9.38
12.10
11.17
6.33
-1.32
-9.90
-17.30
-21.95
-23.18
-21.38
-17.77
-14.06
-11.95
-12.44
-15.47
-19.80
-23.64
-25.47
-24.75
-22.04
-18.44
-14.91
-11.69
-8.40
-4.32
0.88
6.96
13.27
19.16
24.27
28.57
31.98
34.20
34.78
33.49
30.68
27.38
24.46
22.54
21.62
21.20
20.76
20.09
19.34
18.70
17.97
16.81
14.75
11.58
7.64
3.64
0.28
-2.01
-3.11
-3.06
-1.96
-0.06
2.08
3.57
3.47
1.27
-2.72
-7.37
-11.24
-13.19
-12.91
-10.98
-8.53
-6.70
-6.24
-7.26
-9.34
-11.57
-12.80
-11.99
-8.53
-2.75
4.06
10.03
13.40
13.36
10.36
5.93
1.87
-0.54
-0.99
-0.11
1.05
1.54
0.86
-1.08
-4.18
-8.31
-13.28
-18.66
-23.64
-27.12
-28.08
-26.08
-21.48
-15.43
-9.28
-4.10
-0.39
2.07
3.79
5.17
6.23
6.79
6.83
6.62
6.77
7.64
9.00
10.02
9.78
7.81
4.55
1.01
-1.65
-2.79
-2.62
-1.98
-1.76
-2.45
-3.91
-5.51
-6.54
-6.60
-5.73
-4.33
-2.97
-2.17
-2.19
-3.04
-4.45
-5.96
-6.99
-6.92
-5.20
-1.44
4.40
11.91
20.15
27.74
33.15
35.15
33.16
27.45
19.05
9.45
0.21
-7.38
-12.57
-15.18
-15.51
-14.17
-11.92
-9.42
-7.17
-5.38
-4.10
-3.33
-3.10
-3.45
-4.23
-5.22
-6.07
-6.48
-6.27
-5.49
-4.37
-3.22
-2.26
-1.46
-0.85
-0.49
-0.52
-1.29
-2.75
-4.43
-5.43
-4.68
-1.07
5.58
14.44
23.69
31.37
36.11
37.41
35.58
31.43
26.46
22.19
19.93
20.39
23.30
27.46
30.88
32.10
28.88
20.99
9.52
-3.48
-15.53
-24.41
-28.78
-28.46
-24.50
-18.81
-13.35
-9.82
-9.18
-11.45
-15.88
-21.25
-26.34
-30.15
-32.30
-32.79
-32.22
-31.43
-31.25
-32.16
-34.08
-36.31
-37.66
-36.77
-32.41
-24.11
-12.55
0.48
12.37
20.57
23.49
21.06
14.72
6.91
0.04
-4.32
-5.65
-4.37
-1.40
2.41
6.47
10.47
14.25
17.64
20.37
22.08
22.49
21.37
18.76
14.97
10.58
6.22
2.51
-0.23
-1.94
-2.75
-2.86
-2.34
-1.13
0.87
3.62
6.80
9.80
11.89
12.53
11.54
9.20
6.08
2.78
-0.23
-2.45
-3.43
-2.67
0.30
5.54
12.61
20.46
27.67
32.79
34.67
32.74
27.05
18.36
7.78
-3.34
-13.94
-23.25
-30.91
-36.81
-40.81
-42.53
-41.37
-36.85
-29.03
-18.87
-8.06
1.39
7.83
10.51
9.81
7.02
3.77
1.51
0.82
1.37
2.19
2.31
1.19
-0.92
-3.17
-4.50
-4.16
-1.98
1.59
5.78
9.80
13.07
15.30
16.34
15.98
13.93
9.90
3.88
-3.59
-11.44
-18.26
-22.79
-24.26
-22.76
-19.06
-14.39
-9.87
-6.25
-3.80
-2.45
-1.98
-2.13
-2.60
-2.98
-2.86
-1.97
-0.42
1.11
1.72
0.81
-1.42
-3.87
-4.97
-3.44
1.08
7.76
15.04
21.30
25.62
27.88
28.33
27.58
25.74
22.49
17.41
10.50
2.45
-5.49
-11.97
-16.05
-17.47
-16.90
-15.29
-13.64
-12.55
-12.08
-11.79
-11.05
-9.43
-6.91
-3.96
-1.28
0.49
1.09
0.81
0.42
0.85
2.84
6.57
11.51
16.51
20.15
21.16
18.78
13.49
6.55
-0.36
-5.79
-9.10
-10.30
-10.00
-9.03
-8.06
-7.26
-6.39
-5.01
-2.80
0.20
3.60
6.83
9.37
11.00
11.81
12.04
11.85
11.22
9.94
7.86
5.04
1.69
-1.98
-5.74
-9.38
-12.57
-14.80
-15.35
-13.58
-9.16
-2.49
5.20
12.31
17.39
19.60
18.90
15.89
11.11
6.04
2.26
0.43
-0.10
-0.91
-3.58
-8.91
-16.62
-25.51
-33.95
-40.64
-45.02
-47.12
-47.30
-45.87
-43.00
-38.80
-33.54
-27.67
-22.04
-17.56
-14.71
-13.23
-12.17
-10.39
-7.17
-2.75
2.12
6.53
10.30
14.33
20.33
29.81
43.02
58.97
74.93
88.18
96.76
99.72
96.85
88.18
73.71
53.88
30.26
5.64
-16.27
-32.37
-41.35
-44.07
-42.76
-39.94
-37.18
-34.38
-31.84
-29.82
-29.24
-31.23
-36.13
-42.70
-48.56
-51.12
-48.72
-41.57
-31.29
-20.17
-10.10
-1.80
5.20
11.90
19.17
27.48
36.86
46.96
56.81
64.67
67.47
63.51
52.08
34.47
14.04
-4.89
-18.57
-25.25
-25.52
-21.59
-15.94
-10.69
-7.07
-5.48
-5.83
-7.46
-9.16
-9.34
-6.63
-0.59
7.34
14.20
16.66
12.70
2.83
-10.02
-21.51
-27.91
-27.47
-20.96
-10.71
0.79
11.87
21.73
29.64
34.30
33.93
27.04
13.57
-4.44
-23.38
-39.50
-49.70
-53.67
-52.91
-49.23
-43.59
-35.85
-25.50
-12.80
0.83
13.18
22.25
27.34
29.43
30.08
30.78
32.25
34.16
35.46
34.99
31.95
26.33
18.68
9.81
0.54
-8.36
-16.09
-21.42
-23.50
-22.42
-19.33
-16.23
-15.13
-16.90
-20.61
-23.90
-24.14
-19.98
-12.20
-3.41
3.30
5.84
4.13
-0.12
-4.58
-7.91
-10.13
-12.37
-15.74
-20.39
-25.16
-27.92
-26.49
-19.57
-7.30
8.93
26.73
43.12
55.65
62.71
63.76
59.32
50.72
39.64
27.62
15.87
5.40
-2.71
-7.37
-7.84
-4.20
2.19
8.98
13.59
14.28
10.92
4.97
-1.28
-5.88
-8.03
-8.11
-7.27
-6.58
-6.70
-7.82
-10.06
-13.69
-18.99
-25.71
-32.66
-37.81
-38.90
-34.40
-24.42
-10.97
2.64
13.02
18.03
17.55
13.28
7.65
2.81
-0.19
-1.47
-1.86
-2.12
-2.48
-2.64
-2.21
-1.05
0.47
1.49
1.00
-1.83
-7.44
-15.49
-24.92
-34.05
-40.90
-43.77
-41.90
-35.59
-25.78
-14.13
-1.83
10.27
21.30
30.13
35.35
35.89
31.85
24.79
17.15
11.18
8.22
7.90
8.80
9.53
9.64
9.63
10.46
12.78
16.70
21.58
26.50
30.47
32.57
32.01
28.46
22.14
14.21
6.61
1.22
-0.92
-0.02
2.46
4.61
4.87
2.63
-1.67
-6.90
-11.82
-15.46
-17.32
-17.36
-15.87
-13.42
-10.66
-8.25
-6.81
-6.74
-8.22
-11.06
-14.66
-18.09
-20.33
-20.69
-19.12
-16.35
-13.53
-11.76
-11.55
-12.62
-14.07
-14.96
-14.71
-13.29
-11.13
-8.82
-6.79
-5.20
-3.91
-2.62
-1.08
0.78
2.76
4.49
5.60
5.96
5.72
5.32
5.24
5.74
6.86
8.39
10.12
11.96
13.88
15.75
17.25
17.86
17.09
14.72
11.00
6.60
2.43
-0.80
-2.80
-3.73
-3.97
-3.89
-3.73
-3.62
-3.59
-3.68
-3.98
-4.51
-5.20
-5.82
-6.24
-6.54
-7.01
-7.87
-8.93
-9.67
-9.38
-7.60
-4.29
-0.04
4.13
7.32
8.43
7.55
5.72
4.26
3.95
4.87
6.41
7.75
8.43
8.63
9.00
10.15
12.63
15.68
18.28
19.42
18.53
15.04
10.17
5.54
2.45
1.43
2.07
3.49
4.64
4.80
3.86
2.32
0.83
-0.10
-0.43
-0.49
-0.66
-1.13
-1.80
-2.31
-2.28
-1.75
-1.09
-0.80
-1.24
-2.29
-3.49
-4.35
-4.68
-4.58
-4.51
-4.85
-5.69
-6.73
-7.40
-7.24
-6.09
-4.17
-1.93
0.13
1.65
2.54
2.89
2.89
2.72
2.56
2.54
2.77
3.21
3.80
4.45
5.06
5.59
5.98
6.20
6.22
6.00
5.55
4.98
4.50
4.30
4.43
4.73
4.89
4.52
3.76
2.71
1.55
0.50
-0.35
-1.06
-1.84
-2.99
-4.79
-7.44
-10.93
-14.95
-18.90
-21.98
-23.51
-23.14
-21.05
-17.81
-14.19
-10.80
-7.87
-5.24
-2.57
0.40
3.67
6.96
9.88
12.08
13.40
13.88
13.77
13.39
13.03
12.89
13.05
13.49
14.08
14.63
14.92
14.72
13.82
12.12
9.62
6.49
3.01
-0.54
-3.94
-7.03
-9.70
-11.80
-13.18
-13.71
-13.48
-12.85
-12.44
-12.97
-14.93
-18.39
-22.89
-27.56
-31.34
-33.39
-33.26
-30.96
-26.93
-21.76
-16.01
-10.12
-4.36
1.07
5.96
10.06
13.19
15.28
16.47
17.07
17.44
17.83
18.30
18.74
19.00
19.00
18.81
18.51
18.14
17.56
16.56
15.04
13.12
11.16
9.64
8.85
8.74
8.90
8.67
7.49
5.08
1.48
-3.01
-8.00
-13.10
-17.96
-22.25
-25.68
-27.99
-29.02
-28.71
-27.18
-24.59
-21.21
-17.30
-13.10
-8.85
-4.78
-1.07
2.17
4.91
7.19
9.09
10.68
11.98
12.93
13.43
13.40
12.86
11.92
10.78
9.62
8.56
7.62
6.77
5.96
5.21
4.56
4.05
3.63
3.21
2.66
1.93
1.01
-0.06
-1.20
-2.32
-3.33
-4.12
-4.57
-4.67
-4.55
-4.47
-4.74
-5.61
-7.10
-9.03
-11.05
-12.74
-13.78
-13.94
-13.20
-11.61
-9.38
-6.75
-3.98
-1.32
1.02
2.89
4.15
4.75
4.72
4.24
3.62
3.21
3.28
3.84
4.64
5.29
5.41
4.87
3.82
2.65
1.80
1.54
1.86
2.52
3.11
3.27
2.78
1.61
-0.11
-2.15
-4.28
-6.29
-8.03
-9.41
-10.50
-11.45
-12.51
-13.89
-15.66
-17.64
-19.42
-20.45
-20.31
-18.84
-16.23
-12.85
-9.13
-5.29
-1.38
2.64
6.70
10.55
13.81
16.14
17.39
17.71
17.43
16.96
16.59
16.45
16.52
16.69
16.82
16.74
16.31
15.44
14.17
12.64
11.13
9.85
8.85
7.98
6.92
5.34
3.06
0.19
-2.93
-5.82
-8.10
-9.63
-10.59
-11.38
-12.43
-14.06
-16.31
-18.99
-21.74
-24.16
-25.91
-26.71
-26.41
-24.96
-22.45
-19.11
-15.25
-11.18
-7.12
-3.17
0.64
4.24
7.49
10.22
12.31
13.82
14.98
16.00
16.98
17.84
18.40
18.52
18.24
17.74
17.22
16.75
16.18
15.23
13.69
11.59
9.23
7.06
5.42
4.44
3.93
3.39
2.29
0.28
-2.55
-5.71
-8.50
-10.40
-11.21
-11.17
-11.06
-11.72
-13.58
-16.22
-18.65
-19.78
-18.95
-16.04
-11.56
-6.63
-2.53
0.01
1.13
1.56
2.18
3.65
6.70
11.86
18.62
25.02
28.21
25.27
14.30
-4.35
-27.46
-48.87
-61.58
-60.93
-46.43
-21.43
8.68
38.37
63.60
79.58
82.23
72.72
56.55
38.69
21.81
7.50
-2.89
-8.35
-8.84
-5.30
0.37
5.26
6.49
2.74
-4.99
-14.33
-22.62
-28.20
-30.54
-30.11
-28.01
-25.20
-22.28
-18.32
-12.93
-6.81
-1.49
1.77
2.72
2.28
1.93
2.87
5.40
8.44
10.31
9.69
6.44
1.47
-3.68
-7.68
-9.92
-10.50
-10.10
-9.48
-9.31
-9.17
-9.04
-8.83
-8.43
-7.70
-6.42
-4.38
-1.34
2.69
7.68
12.08
13.74
11.17
4.39
-5.21
-15.53
-24.30
-29.72
-30.80
-27.65
-21.12
-12.68
-4.14
2.65
6.41
6.89
4.92
2.05
-0.29
-1.22
-0.75
0.40
1.25
1.07
-0.26
-2.37
-4.67
-6.82
-8.69
-10.32
-11.86
-13.41
-14.99
-16.63
-18.28
-19.62
-20.01
-18.44
-13.84
-5.68
5.62
18.64
31.23
41.14
46.88
48.16
45.84
41.49
36.67
32.44
29.31
27.13
25.33
23.36
21.01
18.49
16.26
14.72
14.06
14.31
15.13
16.02
16.58
16.77
16.81
17.05
17.72
17.30
14.97
10.34
3.33
-5.64
-15.34
-23.77
-28.90
-29.73
-26.88
-22.31
-18.76
-18.49
-22.17
-28.63
-35.44
-39.92
-40.22
-35.64
-26.59
-14.56
-1.58
10.45
20.21
27.15
31.90
34.43
34.81
33.19
29.68
24.53
18.16
11.20
4.27
-2.06
-7.47
-11.61
-14.16
-14.91
-13.99
-12.01
-9.77
-7.91
-6.75
-6.36
-6.50
-6.89
-7.34
-7.73
-7.99
-7.96
-7.47
-6.47
-5.05
-3.41
-1.73
-0.37
0.45
0.64
0.32
-0.28
-0.95
-1.58
-2.17
-2.75
-3.37
-3.98
-4.45
-4.63
-4.53
-4.30
-4.25
-4.63
-5.38
-6.08
-5.85
-3.61
1.51
9.64
19.87
30.52
39.70
45.82
47.89
45.55
39.01
28.92
16.42
3.15
-8.82
-17.47
-21.48
-20.76
-16.47
-10.66
-5.47
-2.40
-1.97
-3.75
-6.85
-10.45
-14.04
-17.42
-20.28
-22.22
-22.93
-22.44
-21.20
-19.74
-18.20
-15.94
-11.86
-5.33
2.73
9.62
11.75
6.33
-6.48
-23.50
-39.98
-51.79
-56.98
-55.98
-50.39
-41.67
-30.30
-16.18
0.24
17.49
33.31
45.47
52.63
55.27
54.01
50.07
44.76
38.88
32.77
26.69
21.18
17.24
16.07
18.39
23.60
30.14
35.37
36.84
33.43
25.81
16.04
6.43
-1.51
-7.46
-12.00
-16.00
-19.93
-23.60
-26.39
-27.75
-27.69
-26.52
-24.81
-23.15
-21.90
-21.01
-20.09
-18.67
-16.47
-13.65
-10.70
-8.23
-6.61
-5.76
-5.24
-4.47
-3.09
-1.19
0.77
2.20
2.67
2.19
1.18
0.27
-0.03
0.53
1.80
3.39
4.87
5.94
6.56
6.99
7.47
8.10
8.70
8.93
8.43
7.11
5.17
2.73
0.31
-1.69
-3.11
-4.05
-4.76
-5.43
-6.13
-6.85
-7.59
-8.36
-9.27
-10.41
-11.76
-13.16
-14.41
-15.41
-16.23
-17.06
-18.12
-19.56
-21.34
-23.24
-24.93
-26.13
-26.79
-27.08
-27.37
-28.01
-29.20
-30.88
-32.70
-34.22
-35.01
-34.79
-33.47
-31.01
-27.42
-22.65
-16.74
-9.80
-2.15
5.87
13.90
21.71
29.18
36.21
42.56
47.84
51.57
53.39
53.22
51.35
48.29
44.63
40.89
37.45
34.58
32.45
31.13
30.53
30.34
30.10
29.38
27.96
25.92
23.58
21.33
19.41
17.82
16.36
14.82
13.10
11.27
9.45
7.66
5.86
3.92
1.76
-0.60
-2.98
-5.22
-7.15
-8.70
-9.84
-10.53
-10.71
-10.28
-9.12
-7.23
-4.70
-1.75
1.35
4.32
6.94
9.08
10.73
11.96
12.83
13.39
13.67
13.78
13.82
13.94
14.17
14.45
14.61
14.47
13.89
12.96
11.96
11.19
10.83
10.85
11.06
11.26
11.25
10.77
9.80
8.60
7.52
6.91
6.90
7.37
7.90
7.80
6.14
2.50
-2.77
-8.76
-14.45
-19.27
-23.30
-27.14
-31.51
-37.02
-43.25
-48.76
-51.92
-51.49
-47.28
-39.75
-29.52
-15.22
2.35
20.21
34.64
42.69
43.14
36.14
23.48
8.40
-5.36
-15.13
-19.67
-19.33
-16.86
-14.01
-12.21
-12.15
-13.77
-16.83
-21.66
-28.86
-37.27
-46.58
-55.80
-63.83
-69.79
-73.49
-75.28
-75.45
-73.08
-65.92
-51.90
-30.49
-4.23
21.62
41.15
50.42
49.12
40.69
30.43
22.78
19.82
20.88
23.72
26.12
26.94
26.12
24.22
21.78
18.93
15.71
12.19
8.78
6.18
5.12
6.04
8.86
12.98
17.34
20.92
22.96
23.21
22.00
20.25
18.67
17.83
17.79
18.04
17.78
16.23
13.03
8.39
3.09
-1.89
-5.65
-7.84
-8.66
-8.73
-8.73
-9.04
-9.62
-10.09
-9.99
-8.98
-7.09
-4.62
-2.04
0.32
2.32
4.02
5.61
7.19
8.76
10.15
11.11
11.45
11.16
10.41
9.53
8.87
8.70
9.14
9.99
10.84
11.15
10.45
8.48
5.33
1.49
-2.46
-5.34
-6.40
-5.49
-3.12
-0.32
1.76
2.27
1.04
-1.44
-4.16
-6.13
-6.66
-5.68
-3.74
-1.87
-1.28
-2.90
-7.13
-13.59
-21.32
-28.99
-35.25
-39.12
-40.25
-38.84
-35.54
-31.12
-26.27
-21.52
-17.20
-13.56
-10.79
-8.99
-8.06
-7.60
-6.92
-5.30
-2.36
1.76
6.36
10.47
13.24
14.28
13.75
12.23
10.40
8.84
7.86
7.66
8.30
9.78
11.86
14.09
15.81
16.41
15.53
13.22
9.93
6.31
2.95
0.20
-1.79
-3.08
-3.72
-3.73
-3.12
-2.02
-0.69
0.43
0.96
0.64
-0.53
-2.33
-4.51
-6.82
-9.15
-11.34
-13.03
-13.57
-12.16
-8.15
-1.45
7.24
16.57
24.97
31.19
34.72
35.86
35.37
34.00
32.12
29.57
25.88
20.68
13.96
6.15
-2.00
-9.75
-16.53
-22.02
-26.09
-28.61
-29.53
-28.86
-26.81
-23.88
-20.77
-18.21
-16.71
-16.42
-17.03
-17.97
-18.57
-18.28
-16.79
-14.01
-10.07
-5.23
0.16
5.64
10.71
14.93
18.00
19.92
20.91
21.37
21.59
21.71
21.62
21.09
19.92
18.06
15.69
13.12
10.69
8.62
6.94
5.50
4.06
2.47
0.76
-0.91
-2.33
-3.38
-4.13
-4.77
-5.59
-6.78
-8.41
-10.46
-12.84
-15.43
-18.07
-20.51
-22.43
-23.47
-23.36
-21.97
-19.38
-15.78
-11.46
-6.71
-1.85
2.79
6.97
10.52
13.45
15.85
17.83
19.34
20.21
20.22
19.24
17.37
14.95
12.39
9.97
7.80
5.74
3.59
1.27
-1.19
-3.64
-5.97
-8.16
-10.31
-12.53
-14.79
-16.92
-18.60
-19.49
-19.40
-18.42
-16.92
-15.45
-14.61
-14.76
-15.96
-17.87
-19.93
-21.45
-21.98
-21.36
-19.77
-17.61
-15.23
-12.82
-10.31
-7.50
-4.18
-0.34
3.84
8.04
11.89
15.13
17.58
19.18
19.93
19.89
19.32
18.57
18.13
18.42
19.56
21.27
22.87
23.49
22.44
19.46
14.84
9.29
3.64
-1.47
-5.72
-9.06
-11.48
-12.95
-13.37
-12.74
-11.32
-9.72
-8.69
-8.86
-10.35
-12.69
-14.97
-16.23
-16.00
-14.46
-12.42
-10.83
-10.39
-11.23
-12.95
-14.89
-16.53
-17.59
-17.92
-17.38
-15.66
-12.46
-7.70
-1.66
5.04
11.63
17.39
21.86
24.84
26.39
26.62
25.71
23.90
21.54
18.90
16.14
13.29
10.30
7.26
4.12
0.80
-2.84
-6.72
-10.79
-14.99
-19.22
-23.33
-26.89
-29.68
-31.62
-32.40
-31.29
-27.56
-20.90
-11.55
-0.34
11.82
23.58
33.50
40.87
46.07
49.82
52.73
55.14
57.14
59.16
61.00
61.86
60.82
57.42
51.20
41.83
29.63
12.89
-5.55
-20.34
-27.96
-30.11
-28.89
-25.49
-21.03
-16.44
-12.41
-8.89
-6.20
-4.91
-5.24
-6.50
-7.86
-8.72
-8.70
-7.77
-5.81
-3.45
-1.79
-1.84
-3.82
-7.60
-12.84
-18.89
-24.90
-29.69
-32.46
-32.93
-31.21
-27.55
-22.50
-16.82
-11.12
-5.70
-0.49
4.55
9.27
13.32
16.41
18.34
19.08
18.83
17.97
16.87
15.72
14.50
13.18
11.80
10.50
9.39
8.53
7.89
7.35
6.83
6.28
5.70
5.10
4.48
3.70
2.63
1.12
-0.91
-3.42
-6.30
-9.34
-12.33
-15.03
-17.32
-19.15
-20.59
-21.80
-22.93
-23.98
-24.74
-24.81
-23.73
-21.22
-17.31
-12.35
-6.91
-1.51
3.54
8.09
12.10
15.45
17.93
19.31
19.50
18.64
17.08
15.23
13.44
11.87
10.53
9.35
8.24
7.20
6.26
5.49
4.93
4.57
4.34
4.10
3.74
3.16
2.37
1.45
0.46
-0.57
-1.68
-2.97
-4.56
-6.44
-8.57
-10.78
-12.94
-14.98
-16.87
-18.65
-20.30
-21.65
-22.43
-22.25
-20.79
-17.93
-13.84
-8.91
-3.71
1.22
5.53
9.06
11.86
14.04
15.74
17.00
17.82
18.15
17.98
17.32
16.26
14.95
13.58
12.33
11.30
10.50
9.86
9.33
8.87
8.52
8.27
8.06
7.69
6.95
5.69
3.96
1.99
0.05
-1.64
-3.08
-4.41
-5.89
-7.70
-9.91
-12.45
-15.21
-17.96
-20.43
-22.26
-23.01
-22.30
-19.98
-16.25
-11.60
-6.70
-2.13
1.73
4.78
7.05
8.62
9.51
9.73
9.39
8.70
7.94
7.33
6.89
6.49
5.92
5.09
4.04
3.01
2.24
1.87
1.85
1.98
2.00
1.73
1.10
0.16
-1.01
-2.35
-3.78
-5.21
-6.50
-7.51
-8.17
-8.55
-8.89
-9.50
-10.63
-12.27
-14.10
-15.56
-16.11
-15.38
-13.31
-10.12
-6.23
-2.11
1.84
5.35
8.26
10.53
12.21
13.38
14.07
14.29
14.04
13.33
12.27
11.07
9.94
9.05
8.38
7.76
6.95
5.84
4.47
3.09
2.02
1.44
1.33
1.42
1.36
0.87
-0.14
-1.50
-2.96
-4.29
-5.45
-6.57
-7.89
-9.59
-11.70
-14.00
-16.12
-17.65
-18.28
-17.87
-16.45
-14.20
-11.33
-8.08
-4.65
-1.23
2.03
4.97
7.48
9.49
10.97
11.90
12.30
12.22
11.74
11.00
10.15
9.32
8.57
7.90
7.24
6.55
5.78
4.93
4.03
3.10
2.14
1.11
-0.04
-1.36
-2.85
-4.42
-5.98
-7.42
-8.74
-9.97
-11.22
-12.61
-14.20
-16.04
-18.11
-20.34
-22.46
-24.09
-24.72
-23.92
-21.52
-17.73
-13.04
-8.07
-3.32
0.91
4.52
7.52
9.84
11.36
11.97
11.69
10.75
9.51
8.37
7.59
7.25
7.25
7.38
7.44
7.30
6.93
6.34
5.59
4.70
3.68
2.56
1.35
0.10
-1.19
-2.48
-3.79
-5.12
-6.50
-8.01
-9.70
-11.60
-13.68
-15.84
-17.88
-19.54
-20.51
-20.53
-19.39
-17.08
-13.74
-9.68
-5.24
-0.79
3.36
6.94
9.76
11.68
12.73
13.05
12.95
12.67
12.37
11.97
11.29
10.19
8.68
7.03
5.56
4.58
4.13
4.08
4.10
3.85
3.10
1.77
-0.02
-2.04
-4.03
-5.78
-7.20
-8.42
-9.68
-11.28
-13.43
-16.19
-19.35
-22.52
-25.18
-26.75
-26.77
-25.07
-21.78
-17.30
-12.16
-6.85
-1.70
3.16
7.72
11.95
15.66
18.54
20.40
21.31
21.63
21.91
22.64
24.02
25.77
27.18
27.39
25.87
22.73
18.69
14.86
12.32
11.60
12.41
13.65
13.78
11.60
6.82
0.31
-6.12
-10.09
-9.47
-3.27
7.98
21.49
33.35
40.37
40.85
34.75
23.49
9.66
-3.55
-13.19
-17.65
-17.33
-14.47
-12.49
-14.39
-21.05
-31.17
-41.67
-48.83
-49.97
-44.40
-33.54
-20.34
-7.98
1.35
7.04
9.84
11.17
12.06
12.24
11.44
9.27
5.73
1.31
-2.93
-6.73
-9.69
-11.70
-13.13
-14.40
-15.44
-15.53
-13.84
-9.83
-3.82
3.17
9.69
14.51
17.26
18.34
18.73
18.42
17.81
17.03
16.10
15.08
14.22
14.08
15.22
17.91
21.81
26.20
30.08
32.58
33.30
32.32
30.17
27.44
24.57
21.76
19.14
16.76
14.66
12.90
11.43
10.14
8.73
6.90
4.43
1.41
-1.82
-4.71
-6.73
-7.53
-7.12
-5.92
-4.58
-3.77
-3.91
-5.11
-7.25
-10.11
-13.50
-17.32
-21.28
-24.80
-27.00
-26.99
-24.26
-18.80
-11.22
-2.41
6.61
15.15
22.92
29.85
35.80
40.45
43.38
44.26
43.07
39.97
35.62
31.02
27.21
24.79
23.91
24.29
25.51
27.12
28.20
28.34
27.77
26.94
25.90
24.30
21.67
17.66
12.25
4.44
-5.82
-17.28
-28.25
-37.71
-45.49
-51.86
-57.23
-62.01
-68.58
-77.94
-88.86
-98.89
-106.20
-110.06
-110.80
-109.61
-108.27
-111.23
-120.69
-135.00
-150.08
-162.12
-168.82
-169.30
-163.69
-136.72
-86.07
-24.04
33.20
77.37
107.46
125.04
131.91
130.22
122.55
108.98
90.72
70.83
52.59
37.70
26.50
18.84
14.17
12.81
12.68
12.45
12.47
13.83
16.91
21.77
26.95
31.44
34.72
35.17
32.15
26.53
19.89
13.29
7.32
2.25
-1.50
-3.54
-4.39
-4.36
-3.38
-1.28
1.77
5.45
8.86
11.61
14.09
16.14
17.39
17.54
16.50
14.54
12.53
11.64
13.14
16.83
21.81
26.58
29.53
29.48
26.22
20.57
14.19
8.96
6.27
6.90
10.89
17.60
25.14
30.67
31.44
26.73
18.44
9.63
3.14
0.45
1.24
3.77
5.91
6.18
4.30
1.10
-2.43
-5.41
-8.08
-11.51
-17.14
-26.08
-38.48
-53.36
-67.65
-79.06
-85.80
-87.05
-83.27
-75.90
-66.88
-57.83
-49.28
-40.45
-29.83
-16.23
1.20
21.05
40.11
54.51
61.68
61.53
56.38
49.36
43.05
38.25
34.10
29.13
22.47
14.73
7.77
3.72
3.69
7.60
13.82
20.06
24.17
24.44
20.16
11.91
1.26
-9.97
-19.83
-27.99
-34.24
-38.35
-40.10
-39.40
-36.14
-29.84
-21.21
-11.43
-1.82
6.90
14.55
21.41
26.72
29.64
29.91
28.23
25.98
24.24
23.48
23.23
22.52
20.25
15.83
9.39
1.63
-6.44
-13.97
-20.33
-25.44
-29.50
-32.65
-34.78
-35.70
-35.16
-32.91
-28.95
-23.42
-16.90
-9.82
-2.79
3.58
8.82
12.96
16.58
19.52
22.14
24.86
28.78
34.89
43.71
54.79
66.71
77.20
83.41
82.76
70.03
44.10
8.86
-28.34
-60.66
-83.90
-96.43
-98.43
-91.06
-76.29
-56.22
-33.59
-11.45
6.75
18.42
22.51
19.64
11.81
1.72
-7.41
-12.93
-12.67
-6.14
6.55
24.59
46.03
67.67
85.35
95.39
93.13
79.35
57.38
31.96
7.74
-11.99
-25.84
-34.08
-37.78
-38.29
-36.49
-33.47
-30.15
-27.23
-25.19
-24.27
-24.44
-25.35
-26.44
-26.93
-26.19
-24.00
-20.44
-15.81
-10.50
-4.86
0.88
6.53
11.96
16.69
20.06
21.50
20.84
18.38
14.75
10.74
6.94
3.65
0.83
-1.72
-4.09
-6.16
-7.69
-8.42
-8.25
-7.41
-6.36
-5.67
-5.74
-6.66
-8.18
-9.76
-10.82
-10.99
-10.25
-8.90
-7.39
-6.08
-5.15
-4.61
-4.32
-3.85
-2.63
-0.28
3.16
7.00
10.00
10.58
7.42
0.20
-9.76
-19.74
-26.66
-28.20
-23.44
-13.09
0.95
16.28
29.32
37.19
39.29
36.87
31.42
23.76
14.22
3.22
-8.31
-18.90
-27.34
-32.65
-34.64
-34.00
-31.81
-29.02
-26.11
-23.09
-19.54
-14.72
-8.72
-2.38
3.17
7.14
9.37
10.23
10.29
10.76
11.99
13.93
16.39
18.95
21.24
23.01
24.33
24.53
23.67
22.01
19.97
17.97
16.32
15.16
14.51
14.31
14.42
14.85
15.48
16.24
17.08
17.99
18.91
19.71
20.12
19.78
18.49
16.10
12.56
7.96
2.48
-3.61
-10.02
-16.53
-22.89
-28.78
-33.87
-37.95
-40.80
-42.20
-41.93
-39.85
-35.98
-30.51
-23.67
-15.80
-7.51
0.46
7.39
12.68
15.93
16.93
15.08
10.35
3.66
-3.59
-10.06
-14.81
-17.45
-18.00
-16.87
-14.69
-12.40
-10.36
-8.99
-8.63
-9.45
-11.31
-13.85
-16.56
-18.92
-20.49
-20.70
-19.53
-17.26
-14.33
-11.16
-8.06
-5.16
-2.41
0.45
3.76
7.69
12.29
17.47
23.02
28.68
34.14
39.12
43.50
47.19
50.10
52.13
53.23
53.38
52.64
51.14
49.02
46.43
43.51
40.27
36.73
32.88
28.75
24.40
19.88
15.16
10.14
4.72
-1.17
-7.38
-13.63
-19.50
-24.64
-28.92
-32.43
-35.41
-38.14
-40.77
-43.28
-45.50
-47.20
-48.19
-48.41
-47.89
-46.78
-45.21
-43.28
-41.01
-38.24
-34.73
-30.20
-24.45
-17.47
-9.45
-0.79
8.00
16.38
23.85
29.94
34.25
36.49
36.52
34.43
30.56
25.39
19.47
13.28
7.10
1.05
-4.82
-10.43
-15.58
-19.92
-23.03
-24.55
-24.26
-22.22
-18.71
-14.14
-8.97
-3.67
1.28
5.27
7.71
8.09
6.33
2.94
-1.04
-4.33
-5.89
-5.33
-3.04
0.04
2.82
4.50
4.84
4.08
2.70
1.13
-0.37
-1.68
-2.71
-3.22
-2.83
-1.16
1.89
6.01
10.46
14.23
16.49
16.83
15.46
13.04
10.45
8.39
7.18
6.68
6.50
6.21
5.51
4.34
2.83
1.17
-0.40
-1.67
-2.53
-2.92
-2.91
-2.66
-2.37
-2.17
-2.12
-2.27
-2.60
-3.27
-4.45
-6.21
-8.40
-10.51
-11.79
-11.53
-9.34
-5.19
0.49
7.13
13.99
20.15
24.81
27.34
27.48
25.43
22.08
17.75
12.76
7.31
1.62
-3.80
-8.20
-10.71
-10.72
-8.11
-3.41
2.42
8.39
12.82
14.21
11.60
4.76
-5.63
-18.03
-30.43
-40.84
-47.98
-51.67
-52.57
-51.76
-50.20
-48.26
-45.68
-41.87
-36.17
-28.33
-18.75
-8.27
1.98
11.02
18.39
24.29
29.23
33.63
37.33
39.58
39.54
36.87
32.13
26.72
22.42
20.49
21.15
23.65
26.38
27.96
27.74
25.91
23.18
20.38
17.92
15.63
12.94
9.23
4.33
-1.41
-6.97
-11.37
-13.95
-14.71
-14.15
-13.08
-12.23
-11.94
-12.17
-12.46
-12.28
-11.23
-9.34
-7.11
-5.36
-4.92
-6.13
-8.74
-11.97
-14.74
-16.07
-15.35
-12.42
-7.66
-1.90
3.73
7.99
9.99
9.50
7.09
3.86
0.98
-0.84
-1.69
-2.18
-3.06
-4.69
-6.88
-8.96
-10.22
-10.23
-8.94
-6.68
-3.87
-0.91
1.93
4.45
6.43
7.55
7.54
6.22
3.68
0.28
-3.40
-6.75
-9.19
-10.07
-9.21
-6.84
-3.61
-0.37
2.11
3.42
3.66
3.48
3.72
5.00
7.40
10.46
13.38
15.46
16.37
16.26
15.68
15.21
15.18
15.62
16.37
16.92
16.94
16.26
14.84
12.73
10.01
6.80
3.43
0.30
-2.05
-3.13
-2.85
-1.66
-0.46
-0.29
-1.91
-5.35
-10.05
-14.89
-18.67
-20.59
-20.56
-19.10
-17.20
-15.95
-15.25
-15.39
-16.40
-18.07
-19.93
-21.30
-21.44
-19.91
-16.69
-12.11
-6.94
-1.96
2.34
5.93
9.25
12.89
17.05
21.41
25.45
28.55
30.33
30.72
29.92
28.30
26.09
23.03
18.66
12.86
5.92
-1.45
-8.54
-14.81
-20.07
-22.86
-22.38
-19.48
-15.93
-12.85
-10.27
-7.81
-5.29
-2.85
-1.19
-0.70
-1.67
-3.86
-6.55
-8.99
-10.65
-11.34
-11.19
-9.75
-7.31
-4.52
-1.80
0.73
3.10
5.28
7.22
8.81
10.03
10.60
10.11
8.37
5.50
1.80
-2.39
-6.72
-10.75
-14.07
-16.55
-18.43
-19.93
-21.11
-21.92
-22.32
-22.27
-21.71
-20.53
-17.47
-12.33
-6.05
-0.04
4.85
8.49
11.18
13.30
15.19
17.04
18.71
20.08
21.08
21.59
21.34
19.97
17.32
13.55
9.23
5.05
1.80
0.15
0.38
2.35
5.47
9.01
12.33
14.89
16.26
16.29
15.28
13.41
11.04
8.47
5.96
3.69
1.71
-0.09
-1.74
-3.17
-4.29
-4.98
-5.37
-5.60
-5.75
-5.80
-5.70
-5.40
-4.87
-4.31
-3.98
-4.28
-5.27
-6.73
-8.23
-9.26
-9.38
-8.19
-5.56
-0.99
4.64
9.69
12.57
12.53
9.94
5.96
2.00
-1.05
-3.09
-4.70
-6.41
-8.34
-10.11
-11.21
-11.59
-11.11
-10.04
-8.32
-6.27
-3.87
-0.98
2.25
5.23
7.11
7.27
5.49
2.12
-2.16
-6.54
-10.42
-13.58
-15.99
-17.81
-18.81
-18.83
-17.91
-16.28
-14.29
-12.27
-10.44
-8.79
-7.18
-5.39
-3.23
-0.69
2.16
5.07
7.64
9.38
10.03
9.67
8.72
7.82
7.47
8.03
9.42
11.22
12.93
14.36
15.74
16.71
17.34
16.56
14.04
10.22
6.15
2.90
1.36
1.76
3.62
5.91
7.41
7.41
5.82
3.57
1.16
-0.79
-1.89
-2.07
-1.60
-1.06
-0.97
-1.68
-3.24
-5.36
-7.30
-8.50
-8.22
-6.05
-2.19
2.68
7.70
12.09
15.41
17.71
19.29
20.45
21.34
21.86
21.83
21.03
19.29
16.52
12.90
8.81
4.79
1.27
-1.53
-3.70
-5.63
-7.70
-10.14
-12.78
-15.20
-16.91
-17.66
-17.56
-16.98
-16.39
-16.05
-16.04
-16.19
-16.29
-16.28
-16.26
-16.45
-17.03
-18.01
-19.12
-19.98
-20.12
-19.33
-17.83
-16.17
-14.90
-14.29
-14.27
-14.39
-14.13
-12.97
-10.78
-7.85
-4.58
-1.15
2.55
6.66
11.16
15.65
19.64
22.47
23.38
22.11
19.15
15.61
12.65
11.07
11.04
12.56
15.22
18.36
21.39
24.06
26.21
27.52
27.43
23.55
15.56
5.94
-2.18
-7.41
-10.13
-11.48
-12.49
-13.66
-14.65
-14.49
-12.50
-8.93
-4.72
-0.90
1.90
3.20
2.90
1.32
-1.01
-3.17
-4.55
-5.23
-5.49
-5.36
-4.49
-2.39
1.06
5.53
10.15
13.66
15.06
14.16
11.60
8.43
5.60
3.67
2.57
2.09
1.85
1.50
0.89
0.04
-1.04
-2.40
-4.30
-6.88
-10.02
-13.46
-16.79
-19.47
-21.07
-21.58
-20.42
-17.86
-14.58
-11.34
-8.83
-7.46
-7.13
-7.24
-7.01
-5.67
-2.83
1.44
6.66
12.03
16.71
20.19
22.27
22.92
22.36
20.91
18.99
17.04
15.41
13.59
11.39
8.90
6.26
3.69
1.22
-1.16
-3.54
-5.93
-8.23
-10.39
-11.96
-12.87
-13.31
-13.73
-14.57
-16.14
-18.54
-21.62
-25.15
-27.97
-29.51
-29.46
-27.80
-24.81
-20.99
-16.97
-13.27
-10.14
-7.46
-5.06
-2.66
-0.03
2.83
5.73
8.28
10.11
11.03
11.12
10.61
9.87
9.32
9.15
9.32
9.58
9.60
9.19
8.33
7.10
5.65
4.10
2.53
1.00
-0.42
-1.63
-2.55
-3.21
-3.81
-4.65
-6.02
-8.07
-10.73
-13.70
-16.54
-18.80
-20.11
-20.22
-19.03
-16.58
-13.05
-8.69
-3.81
1.30
6.34
11.11
15.42
19.11
22.03
24.07
25.22
25.61
25.50
25.22
24.99
24.96
25.11
25.32
25.50
25.58
25.54
25.29
24.74
23.83
22.62
21.37
20.49
20.24
20.65
21.33
21.72
21.31
19.99
18.03
15.89
13.97
12.35
10.85
9.29
7.68
6.32
5.63
5.98
7.41
9.68
12.35
14.98
17.19
18.67
19.16
18.45
16.37
12.97
8.51
3.47
-1.62
-6.26
-10.17
-13.28
-15.76
-17.88
-19.93
-22.08
-24.33
-26.56
-28.54
-30.13
-31.28
-32.02
-32.47
-32.70
-32.70
-32.44
-31.88
-31.02
-29.93
-28.72
-27.57
-26.64
-26.09
-26.04
-26.47
-27.22
-27.99
-28.39
-28.12
-26.98
-24.95
-22.12
-18.60
-14.48
-9.89
-4.99
-0.06
4.55
8.53
11.70
14.07
15.79
17.01
17.77
18.01
17.63
16.62
15.19
13.69
12.52
11.99
12.16
12.84
13.69
14.34
14.52
14.12
13.14
11.65
9.71
7.32
4.45
1.16
-2.47
-6.19
-9.72
-12.83
-15.36
-17.25
-18.50
-19.09
-18.98
-18.12
-16.52
-14.24
-11.43
-8.22
-4.71
-0.96
2.96
6.87
10.46
13.39
15.36
16.27
16.26
15.71
15.04
14.59
14.50
14.74
15.10
15.40
15.49
15.36
15.08
14.73
14.36
13.94
13.38
12.58
11.50
10.23
8.94
7.86
7.14
6.82
6.81
6.90
6.87
6.50
5.64
4.21
2.23
-0.12
-2.43
-4.10
-4.36
-2.51
1.90
8.87
17.87
27.99
38.08
47.09
54.26
59.22
61.88
62.25
60.34
56.05
49.32
40.19
28.84
15.58
0.82
-14.96
-31.16
-46.88
-60.95
-72.04
-78.97
-81.16
-78.86
-73.19
-65.85
-58.62
-52.92
-49.48
-48.23
-48.50
-49.28
-49.59
-48.76
-46.60
-43.37
-39.61
-35.94
-32.84
-30.47
-28.68
-27.09
-25.28
-22.86
-19.56
-15.23
-9.80
-3.31
4.08
11.98
19.82
26.96
32.83
37.10
39.80
41.23
41.84
42.01
42.01
41.91
41.73
41.45
41.06
40.52
39.72
38.43
36.44
33.62
30.05
26.06
22.10
18.54
15.43
12.46
9.01
4.48
-1.51
-8.93
-17.38
-26.28
-34.98
-42.99
-49.97
-55.78
-60.43
-64.04
-66.72
-68.46
-69.07
-68.21
-65.55
-60.95
-54.64
-47.19
-39.31
-31.57
-24.24
-17.24
-10.29
-3.18
4.10
11.32
18.10
24.11
29.18
33.28
36.51
38.83
40.11
40.15
38.88
36.51
33.64
31.05
29.42
28.98
29.39
29.88
29.69
28.33
25.82
22.58
19.17
16.03
13.38
11.24
9.64
8.64
8.25
8.32
8.49
8.26
7.27
5.44
2.94
0.21
-2.11
-3.49
-3.67
-2.66
-0.61
2.22
5.57
8.92
11.81
13.91
14.91
14.52
12.63
9.47
5.72
2.19
-0.79
-3.13
-4.96
-6.62
-8.66
-11.46
-15.04
-19.00
-22.79
-26.38
-29.65
-32.27
-33.86
-34.21
-33.33
-31.28
-28.31
-22.03
-12.54
-2.36
5.75
10.90
13.82
15.66
17.25
18.84
20.40
21.43
21.96
22.44
23.58
25.67
28.43
31.35
33.90
35.74
36.30
35.35
32.91
29.11
23.86
17.04
8.96
0.32
-7.90
-14.88
-19.88
-22.39
-22.39
-20.43
-17.41
-14.14
-11.09
-8.38
-6.01
-3.97
-2.37
-1.46
-1.48
-2.41
-3.88
-5.27
-6.00
-5.83
-4.86
-3.53
-2.33
-1.67
-1.82
-2.83
-4.71
-7.41
-10.85
-14.93
-19.43
-24.00
-28.15
-31.35
-33.12
-33.20
-31.62
-28.69
-24.86
-20.57
-16.08
-11.43
-6.54
-1.34
4.09
9.47
14.36
18.26
20.74
21.68
21.30
20.24
19.32
19.28
20.39
22.25
23.89
24.15
22.20
17.91
11.91
5.17
-1.45
-7.63
-13.50
-19.44
-25.63
-31.93
-37.90
-42.96
-46.65
-48.54
-48.18
-45.03
-38.72
-29.35
-17.78
-5.59
5.44
13.91
19.34
22.19
23.52
24.36
25.12
25.50
24.89
23.04
20.39
18.15
17.63
19.74
24.37
30.21
35.40
38.40
38.58
36.31
32.46
27.73
22.66
17.37
11.53
4.69
-3.16
-11.47
-19.32
-25.74
-30.12
-31.84
-30.75
-27.74
-24.52
-22.78
-23.63
-27.28
-33.02
-39.76
-45.62
-48.73
-48.13
-43.66
-35.31
-23.16
-7.66
11.13
28.38
38.93
42.06
40.94
39.23
39.33
41.53
44.34
45.42
42.75
36.45
28.48
21.21
16.05
13.29
11.90
10.15
6.71
1.19
-5.13
-10.38
-13.68
-16.03
-18.90
-23.55
-30.04
-36.96
-42.05
-42.89
-38.25
-28.31
-16.41
-6.06
0.38
2.52
1.74
0.08
-0.60
0.55
3.08
5.81
7.96
9.42
10.69
12.72
15.88
20.08
24.66
28.54
30.52
30.03
27.25
22.53
17.40
12.90
9.41
6.65
4.03
1.13
-1.87
-4.35
-5.64
-5.33
-3.69
-1.43
0.64
1.81
1.67
0.18
-2.29
-5.09
-7.45
-8.97
-9.66
-9.99
-10.66
-12.08
-14.08
-15.99
-16.79
-15.77
-12.86
-8.64
-3.97
0.27
3.37
4.82
4.27
1.70
-2.41
-6.92
-10.40
-11.69
-10.47
-7.40
-3.74
-0.69
1.18
2.04
2.42
2.72
2.96
2.90
2.41
1.70
1.32
1.74
3.05
4.86
6.41
6.97
6.13
4.00
1.13
-1.63
-3.49
-3.96
-3.00
-1.04
1.28
3.36
4.91
5.94
6.70
7.45
8.33
9.29
10.17
10.77
10.92
10.50
9.37
7.48
4.91
1.90
-1.17
-3.84
-5.76
-6.70
-6.69
-5.90
-4.67
-3.36
-2.30
-1.72
-1.69
-2.15
-2.92
-3.79
-4.59
-5.15
-5.36
-5.19
-4.63
-3.80
-2.88
-2.05
-1.49
-1.26
-1.28
-1.34
-1.18
-0.54
0.69
2.50
4.67
6.83
8.55
9.47
9.44
8.63
7.47
6.51
6.19
6.65
7.57
8.33
8.26
6.98
4.64
1.78
-0.89
-2.78
-3.69
-3.81
-3.52
-3.26
-3.27
-3.64
-4.09
-4.53
-4.95
-5.35
-5.73
-6.09
-6.47
-6.98
-7.76
-8.91
-10.47
-12.29
-14.10
-15.57
-16.43
-16.53
-15.75
-14.07
-11.48
-8.06
-3.93
0.61
5.22
9.49
13.09
15.79
17.50
18.25
18.07
17.11
15.51
13.53
11.45
9.54
8.00
6.90
6.13
5.51
4.85
3.97
2.83
1.42
-0.14
-1.72
-3.13
-4.20
-4.83
-5.02
-4.94
-4.88
-5.18
-6.15
-7.91
-10.26
-12.71
-14.51
-14.89
-13.32
-9.73
-4.59
1.22
6.78
11.47
15.17
18.25
21.21
24.42
27.84
31.14
33.82
35.60
36.45
36.56
36.23
35.65
34.90
34.10
33.41
33.10
33.39
34.27
35.44
36.36
36.44
35.26
32.70
28.91
24.22
18.98
13.43
7.73
1.98
-3.71
-9.25
-14.53
-19.50
-24.07
-28.03
-31.03
-32.55
-32.16
-29.68
-25.39
-19.99
-14.41
-9.54
-5.98
-4.01
-3.65
-4.83
-7.49
-11.53
-16.68
-22.44
-28.13
-33.07
-36.82
-39.28
-40.65
-41.29
-41.49
-41.41
-41.00
-40.12
-38.61
-36.37
-33.31
-29.39
-24.55
-18.79
-12.36
-5.86
-0.25
3.39
4.24
2.11
-2.37
-7.88
-12.89
-16.16
-17.08
-15.72
-12.59
-8.27
-3.20
2.38
8.30
14.35
20.19
25.40
29.61
32.57
34.21
34.67
34.15
32.91
31.15
29.00
26.57
23.92
21.21
18.60
16.27
14.34
12.79
11.52
10.37
9.22
8.05
6.89
5.81
4.78
3.73
2.51
0.97
-0.97
-3.34
-6.12
-9.27
-12.74
-16.38
-19.89
-22.77
-24.44
-24.38
-22.36
-18.55
-13.45
-7.77
-2.17
2.88
7.13
10.52
13.10
14.93
16.12
16.78
16.94
16.49
15.18
12.64
8.61
3.14
-3.33
-10.01
-15.97
-20.45
-23.06
-23.84
-23.18
-21.62
-19.71
-17.83
-16.25
-15.09
-14.43
-14.30
-14.67
-15.50
-16.71
-18.29
-20.27
-22.71
-25.60
-28.66
-31.38
-33.05
-33.01
-30.86
-26.66
-20.94
-14.47
-8.05
-2.29
2.49
6.27
9.17
11.42
13.25
14.81
16.18
17.30
17.97
17.95
17.02
15.14
12.44
9.26
5.98
2.96
0.34
-2.04
-4.52
-7.43
-10.88
-14.57
-17.93
-20.32
-21.45
-21.60
-21.64
-22.67
-25.60
-30.62
-37.18
-44.13
-50.21
-54.44
-56.28
-55.68
-52.94
-48.69
-43.84
-39.45
-36.27
-34.21
-31.93
-27.11
-17.33
-1.40
19.73
42.97
64.13
79.58
87.53
88.35
83.89
76.34
67.28
57.54
47.63
38.21
30.25
24.63
21.58
20.39
19.68
18.05
14.79
10.14
5.06
0.65
-2.40
-4.02
-4.74
-5.24
-6.09
-7.50
-9.39
-11.50
-13.58
-15.47
-17.13
-18.55
-19.79
-20.82
-21.59
-21.91
-21.55
-20.22
-17.76
-14.14
-9.59
-4.50
0.66
5.42
9.45
12.55
14.66
15.82
16.15
15.88
15.31
14.79
14.65
15.08
16.16
17.81
19.84
22.01
24.00
25.50
26.23
25.99
24.72
22.50
19.59
16.29
12.89
9.59
6.45
3.44
0.50
-2.42
-5.37
-8.40
-11.62
-15.07
-18.68
-22.15
-25.02
-26.77
-27.04
-25.76
-23.19
-19.73
-15.81
-11.67
-7.41
-3.05
1.31
5.48
9.14
12.06
14.12
15.38
16.06
16.36
16.42
16.27
15.85
15.09
14.02
12.69
11.25
9.79
8.39
7.03
5.67
4.29
2.95
1.75
0.81
0.17
-0.28
-0.76
-1.51
-2.72
-4.46
-6.63
-9.06
-11.54
-13.87
-15.85
-17.24
-17.83
-17.46
-16.09
-13.82
-10.93
-7.69
-4.38
-1.11
2.07
5.16
8.12
10.85
13.19
14.98
16.17
16.80
16.99
16.83
16.41
15.77
14.96
14.07
13.26
12.65
12.25
11.96
11.62
11.08
10.21
9.00
7.44
5.56
3.46
1.32
-0.63
-2.11
-3.01
-3.41
-3.61
-4.02
-4.91
-6.41
-8.38
-10.58
-12.75
-14.64
-16.05
-16.78
-16.65
-15.52
-13.40
-10.40
-6.70
-2.51
1.99
6.59
11.05
15.02
18.16
20.30
21.50
22.07
22.49
23.20
24.44
26.20
28.20
30.02
31.21
31.47
30.74
29.25
27.48
26.03
25.30
25.44
26.20
27.10
27.62
27.37
26.22
24.25
21.63
18.55
15.17
11.64
8.13
4.80
1.78
-0.87
-3.15
-5.11
-6.77
-8.16
-9.31
-10.26
-11.12
-11.99
-12.86
-13.55
-13.72
-12.95
-10.99
-7.94
-4.28
-0.78
1.73
2.65
1.78
-0.65
-4.15
-8.17
-12.29
-16.23
-19.86
-23.12
-25.93
-28.24
-30.03
-31.41
-32.57
-33.76
-35.11
-36.63
-38.14
-39.39
-40.16
-40.35
-39.97
-39.18
-38.17
-37.13
-36.18
-35.36
-34.58
-33.73
-32.68
-31.37
-29.74
-27.75
-25.29
-22.18
-18.26
-13.40
-7.65
-1.24
5.43
11.91
17.69
22.37
25.68
27.54
28.10
27.70
26.78
25.74
24.84
24.06
23.18
21.90
20.01
17.54
14.74
12.06
9.93
8.59
7.98
7.79
7.62
7.12
6.17
4.80
3.15
1.35
-0.59
-2.70
-5.08
-7.77
-10.68
-13.64
-16.35
-18.43
-19.58
-19.60
-18.53
-16.62
-14.20
-11.59
-8.93
-6.24
-3.48
-0.74
1.73
3.55
4.42
4.29
3.42
2.30
1.46
1.24
1.69
2.59
3.59
4.41
4.93
5.22
5.45
5.71
6.01
6.18
6.05
5.49
4.59
3.59
2.70
2.06
1.53
0.85
-0.29
-2.08
-4.51
-7.42
-10.57
-13.71
-16.61
-19.03
-20.70
-21.37
-20.86
-19.14
-16.38
-12.83
-8.77
-4.43
0.01
4.31
8.16
11.19
13.14
13.95
13.87
13.36
12.90
12.75
12.94
13.23
13.40
13.28
12.83
12.11
11.22
10.29
9.57
9.30
9.56
10.13
10.37
9.35
6.29
0.91
-6.32
-14.37
-22.01
-28.25
-32.62
-35.15
-36.13
-35.90
-34.69
-32.65
-29.92
-26.74
-23.38
-20.08
-16.93
-13.83
-10.51
-6.61
-1.89
3.71
9.91
16.19
21.85
26.33
29.35
31.02
31.77
32.11
32.38
32.63
32.61
31.98
30.55
28.38
25.79
23.28
21.29
20.09
19.72
19.97
20.50
20.97
21.06
20.63
19.64
18.24
16.70
15.30
14.25
13.60
13.22
12.73
11.66
9.52
5.98
1.03
-4.97
-11.31
-17.08
-21.40
-23.64
-23.57
-21.45
-17.93
-13.89
-10.22
-7.52
-6.04
-5.58
-5.66
-5.65
-4.99
-3.39
-0.85
2.34
5.72
8.72
10.84
11.77
11.45
10.13
8.31
6.53
5.25
4.61
4.51
4.67
4.82
4.75
4.40
3.72
2.72
1.37
-0.30
-2.30
-4.62
-7.40
-10.87
-15.24
-20.63
-26.79
-33.18
-39.00
-43.45
-45.94
-46.21
-44.26
-40.35
-34.91
-28.54
-21.90
-15.69
-10.45
-6.46
-3.63
-1.59
0.21
2.26
4.77
7.66
10.58
13.10
14.91
15.93
16.31
16.32
16.16
15.90
15.47
14.78
13.83
12.78
11.91
11.41
11.30
11.35
11.13
10.21
8.31
5.40
1.73
-2.26
-6.12
-9.43
-11.94
-13.55
-14.32
-14.35
-13.79
-12.74
-11.21
-9.19
-6.62
-3.48
0.13
3.99
7.75
11.04
13.55
15.08
15.62
15.30
14.37
13.14
11.84
10.66
9.69
8.97
8.54
8.44
8.72
9.29
9.91
10.19
9.70
8.24
5.99
3.45
1.28
-0.01
-0.31
0.03
0.40
0.20
-0.83
-2.60
-4.65
-6.38
-7.20
-6.71
-4.71
-1.19
3.61
9.29
15.31
21.04
25.91
29.45
31.27
31.11
28.93
24.91
19.51
13.30
6.88
0.71
-4.96
-10.06
-14.58
-18.51
-21.71
-24.07
-25.59
-26.47
-27.12
-28.01
-29.66
-32.42
-36.43
-41.52
-47.32
-53.47
-59.58
-65.09
-69.24
-71.29
-70.76
-67.61
-62.40
-56.20
-50.50
-46.40
-43.80
-41.28
-36.83
-28.83
-16.77
-1.47
15.17
30.53
42.45
50.49
55.61
59.43
62.97
66.20
68.46
68.85
66.15
59.63
49.73
37.58
24.48
11.32
-1.00
-10.72
-12.09
-0.22
23.49
52.30
79.45
101.38
116.96
126.25
130.06
128.69
120.91
104.99
82.12
53.07
21.35
-8.22
-31.41
-45.21
-48.70
-43.41
-31.93
-16.31
2.22
23.08
47.48
72.96
95.81
112.36
119.76
117.27
106.72
91.54
75.76
62.37
52.50
46.27
43.27
42.72
43.90
46.22
49.00
51.63
53.43
53.71
52.43
49.98
46.61
42.43
37.35
31.12
23.47
14.23
3.20
-9.52
-23.60
-38.71
-54.21
-69.07
-82.14
-92.40
-99.35
-103.21
-104.70
-104.82
-104.83
-105.31
-105.96
-106.04
-105.00
-102.75
-99.68
-96.43
-93.50
-92.04
-92.10
-92.54
-92.07
-90.40
-88.27
-86.99
-87.88
-91.74
-100.77
-115.11
-132.41
-149.51
-164.37
-176.23
-184.97
-190.74
-193.63
-196.99
-202.04
-206.81
-208.39
-205.44
-198.35
-188.23
-176.41
-163.90
-155.79
-153.93
-155.53
-156.17
-153.32
-146.63
-136.62
-123.75
-81.00
-4.42
85.86
164.94
221.55
256.12
273.39
278.83
277.38
273.27
264.66
250.44
232.02
211.49
189.58
166.49
144.14
123.17
104.98
87.29
69.18
52.26
38.98
30.40
26.30
25.97
28.36
32.52
35.26
34.85
32.02
28.81
26.28
24.75
24.15
24.12
24.53
24.15
22.41
19.72
16.91
14.45
12.62
11.67
11.84
13.40
15.91
18.68
21.08
22.56
22.92
22.66
23.02
25.56
31.47
40.82
52.23
63.36
71.74
75.77
75.33
71.60
66.29
60.76
55.52
50.42
45.24
40.22
36.11
33.69
33.03
33.21
32.52
29.21
22.20
11.39
-2.53
-18.56
-35.71
-52.92
-68.92
-82.22
-91.50
-96.13
-96.40
-93.60
-89.55
-85.94
-83.74
-83.10
-83.58
-84.49
-85.03
-84.20
-81.08
-75.18
-66.65
-56.16
-44.64
-32.95
-21.81
-11.76
-2.97
4.21
9.32
11.94
12.24
11.36
10.88
12.15
15.66
21.44
28.81
36.99
44.99
51.98
57.55
61.39
63.04
59.44
49.80
37.14
26.64
21.19
20.35
22.01
23.60
23.70
21.03
15.15
6.11
-5.20
-18.34
-33.16
-49.07
-64.13
-76.18
-81.13
-76.52
-67.53
-57.44
-47.16
-38.28
-31.28
-25.47
-19.52
-12.26
-3.38
6.44
16.54
25.69
32.74
37.72
41.47
44.88
48.30
51.18
52.58
52.29
50.27
46.75
42.60
38.78
35.86
33.85
32.25
30.50
28.62
26.70
24.76
22.91
21.15
19.32
17.12
14.25
10.57
6.38
2.04
-2.17
-6.07
-9.59
-12.82
-15.83
-18.75
-21.55
-24.08
-26.12
-27.41
-27.68
-26.62
-23.95
-19.53
-13.44
-5.97
2.33
10.88
19.15
26.78
33.62
39.60
44.74
49.06
52.56
55.26
57.16
58.22
58.34
57.40
55.32
52.15
48.08
43.48
38.78
34.34
30.36
26.74
23.07
18.73
13.04
5.60
-3.51
-13.72
-24.19
-34.20
-43.51
-52.42
-61.62
-71.70
-82.79
-94.39
-105.59
-115.47
-123.54
-129.94
-135.28
-140.16
-144.69
-148.13
-148.94
-145.30
-135.79
-119.96
-98.62
-73.55
-47.06
-21.31
1.99
21.73
37.45
49.34
58.38
66.34
75.35
87.19
102.35
119.60
136.20
148.89
155.20
154.36
147.52
137.12
125.91
115.99
108.45
103.44
100.47
98.77
97.51
95.82
92.93
88.19
81.28
72.24
61.56
50.14
39.13
29.75
22.92
18.88
17.08
16.27
14.94
11.89
6.60
-0.60
-8.82
-16.98
-24.21
-30.01
-34.20
-36.80
-37.94
-37.83
-36.79
-35.29
-33.89
-33.18
-33.60
-35.36
-38.32
-42.02
-45.76
-48.75
-50.43
-50.55
-49.25
-46.96
-44.19
-41.36
-38.60
-35.82
-32.81
-29.47
-25.96
-22.71
-20.26
-19.06
-19.26
-20.63
-22.66
-24.82
-26.70
-28.15
-29.19
-29.91
-30.39
-30.69
-30.90
-31.21
-31.85
-33.02
-34.68
-36.51
-37.94
-38.40
-37.49
-35.21
-31.89
-27.94
-23.64
-19.12
-14.29
-9.08
-3.65
1.57
5.84
8.57
9.54
8.97
7.33
5.17
2.96
1.07
-0.05
-0.05
1.47
4.83
9.89
15.91
21.67
25.75
26.90
24.23
16.92
5.02
-10.50
-28.08
-46.09
-63.08
-77.82
-89.31
-96.95
-101.48
-103.72
-104.21
-103.42
-101.94
-100.11
-97.66
-93.96
-88.60
-83.22
-79.17
-76.59
-74.52
-71.84
-67.64
-61.58
-54.12
-46.48
-41.78
-41.32
-43.51
-45.19
-43.87
-38.70
-30.41
-20.67
-0.06
32.04
67.12
95.18
112.51
121.12
125.08
128.27
133.21
140.15
145.12
143.84
134.14
116.97
95.84
75.85
61.92
56.63
59.03
63.95
66.27
63.64
56.79
48.01
39.67
33.27
28.82
24.98
19.25
10.44
-0.27
-9.90
-15.35
-14.89
-9.01
-0.42
7.16
10.26
7.81
1.58
-5.24
-10.02
-11.95
-11.76
-10.67
-9.17
-7.00
-3.53
1.21
6.09
9.33
9.68
7.30
3.66
0.62
-0.78
-0.72
-0.28
-0.49
-1.47
-2.55
-2.78
-1.55
1.10
4.57
8.17
11.44
14.21
16.49
18.23
19.16
18.71
16.20
11.09
3.37
-6.24
-16.30
-25.02
-31.00
-33.76
-34.06
-33.45
-33.63
-35.20
-37.63
-39.39
-38.80
-35.04
-28.57
-20.97
-14.05
-8.97
-5.71
-3.37
-0.85
2.38
5.85
8.44
9.04
7.28
3.93
0.59
-1.09
-0.20
2.95
6.96
10.10
11.06
9.56
6.40
2.94
0.70
0.90
4.52
12.06
23.32
36.84
49.68
58.00
58.49
49.89
33.82
14.54
-3.20
-15.51
-20.62
-18.88
-11.93
-1.66
10.28
22.29
33.08
41.40
46.33
47.43
44.85
39.05
30.65
20.63
10.09
0.66
-6.15
-9.63
-10.31
-9.82
-9.97
-11.77
-14.76
-17.32
-17.61
-14.84
-9.72
-4.21
-0.39
0.65
-0.62
-2.48
-2.99
-1.24
1.87
3.94
2.17
-5.08
-17.54
-32.94
-48.05
-59.94
-66.89
-68.51
-64.92
-57.12
-45.89
-32.24
-17.69
-4.34
5.82
11.66
13.53
13.04
12.22
12.78
15.33
19.34
23.65
27.10
29.10
29.54
28.75
27.08
24.94
22.55
20.06
17.40
14.35
10.59
5.80
-0.09
-6.75
-13.30
-18.64
-21.78
-22.26
-20.31
-16.65
-12.14
-7.30
-2.41
2.43
6.65
9.17
8.63
4.11
-3.99
-13.70
-21.89
-25.32
-21.94
-11.82
2.92
18.92
32.64
41.87
46.18
46.51
44.15
40.10
34.63
27.72
19.54
10.84
2.94
-2.91
-6.06
-6.84
-6.36
-5.97
-6.68
-8.69
-11.49
-14.14
-15.78
-16.03
-15.08
-13.49
-11.91
-10.78
-10.16
-9.85
-9.60
-9.25
-8.90
-8.82
-9.33
-10.75
-13.28
-16.80
-21.00
-25.28
-28.90
-31.08
-31.19
-29.02
-24.65
-18.82
-12.20
-5.32
1.55
8.35
15.03
21.50
27.56
32.80
36.77
39.15
39.80
38.72
36.08
32.13
27.00
21.18
14.98
8.75
3.06
-1.45
-4.25
-5.18
-4.80
-4.14
-4.41
-6.60
-10.99
-17.04
-23.72
-29.95
-34.84
-38.12
-39.62
-39.04
-35.99
-30.19
-21.86
-11.88
-1.66
7.39
14.45
19.58
23.54
27.18
31.10
35.13
38.81
41.66
43.45
44.27
44.28
43.42
41.27
37.22
30.70
21.62
10.32
-2.57
-16.28
-30.00
-42.97
-54.54
-63.88
-70.97
-75.58
-77.12
-74.54
-66.83
-53.76
-36.66
-18.36
-2.35
8.48
13.32
13.48
11.60
10.26
10.87
13.22
16.05
17.74
16.90
12.94
5.90
-3.58
-14.12
-23.56
-29.22
-28.52
-20.08
-4.39
16.12
37.66
56.33
69.48
76.35
77.47
74.92
70.00
62.97
53.38
40.97
26.49
11.89
-0.35
-8.39
-11.57
-10.89
-8.19
-5.31
-3.32
-2.30
-1.71
-1.15
-0.87
-1.73
-5.08
-11.80
-21.74
-33.50
-44.81
-53.29
-57.40
-57.03
-53.44
-48.38
-42.85
-36.37
-27.38
-14.51
1.92
18.98
32.27
37.77
33.74
21.63
5.50
-9.68
-19.84
-22.99
-19.39
-10.65
0.87
12.73
22.95
30.20
34.00
34.67
32.90
29.33
24.37
18.20
10.97
3.24
-4.30
-10.91
-16.03
-19.33
-20.64
-19.85
-17.05
-12.60
-7.14
-1.74
2.48
4.52
3.88
0.71
-4.06
-9.02
-12.52
-13.31
-11.06
-6.51
-1.24
3.11
5.48
5.85
5.02
4.05
3.64
3.79
4.01
3.69
2.52
0.61
-1.61
-3.69
-5.26
-6.13
-6.21
-5.46
-3.95
-2.00
-0.11
1.15
1.34
0.34
-1.58
-3.95
-6.20
-7.87
-8.78
-9.00
-8.86
-8.82
-9.33
-10.70
-12.89
-15.54
-18.07
-19.91
-20.68
-20.33
-19.13
-17.46
-15.78
-14.48
-13.90
-14.37
-16.07
-18.90
-22.46
-26.02
-28.74
-29.92
-29.16
-26.51
-22.41
-17.52
-12.51
-7.90
-3.90
-0.45
2.67
5.65
8.52
11.10
13.09
14.20
14.41
14.01
13.55
13.57
14.42
16.15
18.45
20.77
22.49
23.15
22.61
21.05
18.77
16.10
13.27
10.38
7.42
4.29
0.94
-2.28
-4.93
-6.70
-7.44
-7.04
-5.40
-2.45
1.78
7.08
13.56
20.97
28.53
35.11
39.80
42.26
42.71
41.78
40.22
39.46
40.31
42.56
45.13
46.97
47.50
46.78
45.16
43.15
42.25
43.47
46.86
51.62
56.75
61.47
65.06
66.72
59.45
40.55
13.71
-12.96
-32.90
-44.17
-48.27
-48.14
-46.53
-45.14
-42.92
-39.26
-34.27
-29.07
-24.91
-22.46
-21.65
-21.91
-22.40
-21.52
-19.07
-15.46
-11.89
-9.55
-8.99
-10.05
-12.10
-14.32
-15.53
-15.14
-13.18
-10.38
-7.59
-5.41
-4.15
-3.92
-4.68
-6.01
-7.48
-8.70
-9.52
-9.91
-9.89
-9.59
-9.15
-8.73
-8.33
-7.97
-7.64
-7.48
-7.61
-8.10
-8.87
-9.71
-10.30
-10.32
-9.60
-8.16
-6.20
-4.00
-1.80
0.29
2.28
4.25
6.23
8.16
9.90
11.27
12.08
12.17
11.41
9.79
7.43
4.60
1.63
-1.14
-3.51
-5.44
-6.97
-8.17
-9.06
-9.68
-10.08
-10.42
-10.95
-11.88
-13.27
-14.94
-16.54
-17.67
-18.12
-17.99
-17.59
-17.39
-17.70
-18.59
-19.80
-20.83
-21.18
-20.48
-18.68
-15.95
-12.64
-9.12
-5.66
-2.38
0.70
3.59
6.29
8.77
10.97
12.83
14.36
15.57
16.52
17.26
17.80
18.10
18.10
17.74
16.98
15.85
14.43
12.84
11.20
9.57
7.96
6.33
4.65
2.91
1.15
-0.49
-1.88
-2.91
-3.61
-4.15
-4.84
-5.96
-7.66
-9.84
-12.18
-14.24
-15.68
-16.36
-16.39
-16.01
-15.39
-14.56
-13.36
-11.56
-9.08
-6.04
-2.84
0.02
2.07
3.08
3.09
2.36
1.26
0.15
-0.69
-1.16
-1.36
-1.55
-2.14
-3.52
-5.90
-9.14
-12.68
-15.65
-17.22
-16.90
-14.76
-11.41
-7.67
-4.25
-1.55
0.40
1.71
2.44
2.53
1.84
0.31
-1.90
-4.46
-6.95
-9.07
-10.65
-11.65
-12.06
-11.82
-10.85
-9.09
-6.56
-3.36
0.31
4.24
8.23
12.09
15.70
18.98
21.91
24.47
26.62
28.31
29.54
30.40
31.09
31.84
32.77
33.77
34.50
34.49
33.39
31.17
28.21
25.11
22.49
20.69
19.64
18.95
18.12
16.74
14.66
11.98
8.97
5.91
3.01
0.31
-2.24
-4.77
-7.43
-10.30
-13.32
-16.28
-18.84
-20.66
-21.49
-21.28
-20.22
-18.59
-16.72
-14.82
-12.99
-11.19
-9.33
-7.30
-5.02
-2.46
0.32
3.21
6.01
8.46
10.25
11.17
11.23
10.63
9.80
9.16
8.98
9.24
9.67
9.87
9.53
8.57
7.09
5.35
3.57
1.91
0.46
-0.76
-1.77
-2.59
-3.31
-4.03
-4.83
-5.81
-7.00
-8.43
-10.11
-12.00
-14.06
-16.17
-18.13
-19.71
-20.63
-20.65
-19.62
-17.52
-14.57
-11.13
-7.66
-4.64
-2.42
-1.15
-0.81
-1.15
-1.84
-2.45
-2.61
-2.06
-0.73
1.23
3.51
5.76
7.64
8.95
9.58
9.55
8.92
7.77
6.19
4.26
2.06
-0.30
-2.62
-4.63
-6.08
-6.82
-6.90
-6.57
-6.22
-6.21
-6.78
-7.97
-9.67
-11.77
-14.14
-16.65
-19.05
-20.95
-21.89
-21.44
-19.42
-16.00
-11.68
-7.07
-2.66
1.28
4.75
7.89
10.78
13.36
15.41
16.68
17.01
16.44
15.24
13.81
12.54
11.74
11.52
11.80
12.39
13.04
13.49
13.57
13.17
12.30
11.04
9.55
8.00
6.55
5.25
4.08
2.90
1.58
0.01
-1.82
-3.83
-5.94
-8.08
-10.22
-12.32
-14.32
-16.05
-17.29
-17.78
-17.32
-15.86
-13.48
-10.45
-7.06
-3.62
-0.33
2.72
5.51
8.07
10.36
12.32
13.83
14.84
15.37
15.55
15.55
15.51
15.48
15.41
15.17
14.68
13.92
12.96
11.89
10.81
9.78
8.75
7.67
6.50
5.22
3.88
2.52
1.19
-0.10
-1.39
-2.76
-4.29
-6.05
-8.03
-10.14
-12.23
-14.18
-15.86
-17.21
-18.18
-18.69
-18.62
-17.83
-16.22
-13.77
-10.64
-7.06
-3.35
0.20
3.33
5.86
7.72
8.90
9.50
9.68
9.56
9.24
8.75
8.08
7.28
6.47
5.80
5.44
5.47
5.84
6.32
6.60
6.38
5.50
4.00
2.08
0.04
-1.85
-3.42
-4.64
-5.62
-6.51
-7.43
-8.49
-9.69
-11.01
-12.38
-13.65
-14.68
-15.24
-15.17
-14.33
-12.72
-10.45
-7.78
-4.95
-2.18
0.44
2.96
5.45
7.99
10.49
12.76
14.56
15.73
16.23
16.15
15.66
14.89
14.00
13.13
12.51
12.38
12.97
14.30
16.17
18.12
19.61
20.16
19.57
17.94
15.65
13.23
11.20
9.91
9.45
9.64
10.09
10.30
9.82
8.34
5.74
2.18
-2.03
-6.46
-10.68
-14.34
-17.27
-19.40
-20.81
-21.58
-21.81
-21.60
-21.06
-20.33
-19.55
-18.76
-17.96
-17.10
-16.16
-15.22
-14.39
-13.78
-13.43
-13.24
-13.07
-12.84
-12.49
-12.09
-11.70
-11.36
-11.10
-10.91
-10.83
-10.91
-11.20
-11.66
-12.18
-12.61
-12.85
-12.88
-12.79
-12.68
-12.70
-12.92
-13.37
-13.99
-14.67
-15.22
-15.45
-15.20
-14.40
-13.08
-11.36
-9.38
-7.31
-5.26
-3.33
-1.55
0.07
1.64
3.29
5.14
7.25
9.51
11.68
13.50
14.75
15.39
15.52
15.33
15.02
14.65
14.22
13.67
13.01
12.29
11.62
11.08
10.68
10.38
10.09
9.77
9.39
8.93
8.29
7.35
5.96
4.08
1.80
-0.69
-3.09
-5.18
-6.78
-7.81
-8.23
-8.05
-7.27
-5.95
-4.13
-1.91
0.60
3.26
5.92
8.45
10.69
12.58
14.05
15.09
15.71
15.97
15.90
15.57
14.99
14.16
13.11
11.87
10.57
9.37
8.42
7.74
7.24
6.70
5.87
4.64
3.07
1.38
-0.16
-1.35
-2.18
-2.79
-3.39
-4.19
-5.29
-6.66
-8.27
-10.03
-11.85
-13.61
-15.08
-15.97
-15.97
-14.92
-12.88
-10.10
-6.99
-3.91
-1.08
1.42
3.65
5.63
7.34
8.63
9.39
9.59
9.36
8.91
8.52
8.35
8.41
8.59
8.70
8.61
8.30
7.82
7.24
6.59
5.79
4.71
3.28
1.59
-0.12
-1.52
-2.39
-2.70
-2.72
-2.83
-3.36
-4.47
-6.05
-7.88
-9.69
-11.31
-12.65
-13.62
-14.12
-13.92
-12.78
-10.62
-7.55
-3.95
-0.32
2.82
5.17
6.68
7.50
7.90
8.14
8.36
8.65
9.04
9.59
10.34
11.28
12.27
13.05
13.32
12.89
11.82
10.38
9.03
8.10
7.69
7.57
7.28
6.44
4.89
2.80
0.55
-1.47
-3.05
-4.27
-5.32
-6.41
-7.61
-8.86
-10.02
-11.01
-11.79
-12.35
-12.64
-12.54
-11.86
-10.41
-8.13
-5.06
-1.38
2.66
6.74
10.52
13.65
15.86
17.04
17.33
17.06
16.66
16.46
16.55
16.74
16.66
15.98
14.55
12.54
10.31
8.30
6.77
5.83
5.41
5.33
5.36
5.25
4.76
3.61
1.56
-1.53
-5.62
-10.50
-15.80
-21.09
-25.96
-30.04
-33.10
-35.01
-35.75
-35.43
-34.27
-32.52
-30.43
-28.15
-25.71
-23.10
-20.26
-17.17
-13.91
-10.62
-7.50
-4.70
-2.35
-0.45
1.02
2.17
3.08
3.89
4.66
5.47
6.29
7.03
7.54
7.67
7.40
6.84
6.27
5.95
6.02
6.36
6.62
6.39
5.41
3.70
1.54
-0.70
-2.73
-4.52
-6.22
-8.00
-9.88
-11.61
-12.78
-12.93
-11.85
-9.63
-6.68
-3.55
-0.67
1.75
3.78
5.63
7.39
9.00
10.17
10.58
10.10
8.86
7.32
6.02
5.45
5.82
7.04
8.77
10.57
12.05
12.88
12.83
11.77
9.65
6.54
2.70
-1.40
-5.13
-7.88
-9.24
-9.19
-8.15
-6.87
-6.16
-6.58
-8.27
-10.91
-13.83
-16.34
-17.91
-18.30
-17.55
-15.87
-13.52
-10.79
-7.94
-5.20
-2.70
-0.45
1.67
3.82
6.07
8.31
10.25
11.57
12.11
11.90
11.14
10.06
8.77
7.36
5.93
4.70
3.95
3.90
4.47
5.28
5.77
5.44
4.11
1.99
-0.48
-2.84
-4.83
-6.46
-7.93
-9.48
-11.22
-13.12
-14.95
-16.46
-17.38
-17.56
-16.97
-15.71
-13.92
-11.76
-9.31
-6.63
-3.71
-0.56
2.74
6.08
9.31
12.25
14.76
16.70
18.01
18.67
18.75
18.31
17.47
16.29
14.82
13.15
11.45
9.91
8.65
7.66
6.70
5.45
3.64
1.24
-1.51
-4.17
-6.31
-7.84
-8.94
-9.98
-11.28
-12.87
-14.48
-15.71
-16.27
-16.17
-15.68
-15.11
-14.67
-14.29
-13.67
-12.51
-10.68
-8.29
-5.61
-2.92
-0.39
2.02
4.41
6.85
9.28
11.50
13.26
14.41
14.95
15.10
15.09
15.04
14.89
14.41
13.39
11.79
9.81
7.84
6.23
5.07
4.18
3.25
2.00
0.43
-1.27
-2.80
-4.01
-4.98
-5.98
-7.36
-9.34
-11.89
-14.73
-17.42
-19.39
-20.17
-19.47
-17.29
-13.94
-9.92
-5.80
-1.98
1.33
4.13
6.54
8.65
10.52
12.15
13.56
14.80
16.00
17.27
18.59
19.79
20.56
20.56
19.57
17.66
15.19
12.66
10.54
9.04
8.06
7.36
6.65
5.85
4.99
4.16
3.34
2.34
0.87
-1.26
-4.03
-7.17
-10.23
-12.81
-14.65
-15.72
-16.21
-16.37
-16.45
-16.49
-16.37
-15.75
-14.31
-11.80
-8.26
-3.99
0.51
4.73
8.28
10.98
12.85
13.97
14.44
14.31
13.64
12.59
11.39
10.31
9.57
9.24
9.20
9.22
9.00
8.33
7.12
5.48
3.64
1.85
0.32
-0.86
-1.69
-2.27
-2.74
-3.26
-3.96
-4.99
-6.50
-8.55
-11.08
-13.79
-16.29
-18.17
-19.17
-19.14
-18.06
-16.08
-13.39
-10.15
-6.53
-2.70
1.11
4.66
7.88
10.75
13.15
14.91
15.92
16.21
15.97
15.39
14.65
14.09
13.85
13.82
13.72
13.39
12.83
12.27
11.87
11.70
12.12
13.30
15.17
17.43
19.80
22.09
24.13
25.67
24.49
19.60
12.06
4.26
-2.06
-6.34
-9.36
-11.57
-13.19
-14.44
-14.74
-13.89
-12.16
-10.14
-8.59
-7.93
-8.18
-9.11
-10.46
-11.75
-12.73
-13.44
-14.22
-15.52
-17.49
-19.78
-21.87
-23.34
-23.86
-23.45
-22.36
-21.08
-20.17
-19.79
-19.57
-18.98
-17.68
-15.62
-12.99
-10.07
-5.54
0.59
6.87
11.52
13.57
13.08
10.83
7.83
4.98
2.70
0.63
-1.66
-4.28
-6.84
-8.72
-9.36
-8.52
-6.39
-3.54
-0.86
0.96
1.67
1.37
0.27
-1.42
-3.57
-5.85
-7.91
-9.56
-10.55
-10.56
-9.32
-6.71
-2.70
2.09
6.94
11.06
13.69
14.44
13.46
11.36
9.02
7.28
6.66
7.29
8.89
10.89
12.72
14.04
14.76
14.99
14.87
14.53
13.85
12.71
11.14
9.37
7.84
6.95
6.88
7.44
7.87
7.53
5.95
3.24
0.02
-2.87
-4.89
-6.03
-6.91
-8.29
-10.56
-13.48
-16.18
-17.67
-17.36
-15.43
-12.67
-10.08
-8.38
-7.62
-7.30
-6.72
-5.48
-3.64
-1.63
0.05
1.10
1.50
1.59
1.87
2.67
4.04
5.79
7.59
9.11
10.03
10.15
9.40
8.02
6.31
4.65
3.56
3.44
4.52
6.65
9.36
12.03
14.29
15.85
16.08
14.88
11.70
6.96
1.71
-2.87
-6.88
-10.69
-14.63
-18.78
-22.86
-26.34
-28.53
-29.01
-27.78
-25.31
-21.20
-16.27
-11.82
-8.53
-6.08
-3.64
-0.78
2.29
5.12
7.30
8.46
8.56
7.93
6.94
5.93
5.10
4.30
3.71
3.63
4.19
5.43
7.29
9.47
11.61
13.43
14.88
16.15
17.59
19.35
21.44
23.65
25.49
26.48
26.45
25.61
24.38
23.14
21.99
20.78
19.19
16.69
13.10
8.79
4.51
0.88
-1.83
-3.78
-5.34
-6.85
-8.94
-11.82
-15.21
-18.54
-21.48
-23.98
-26.22
-28.35
-30.45
-33.10
-36.58
-40.64
-44.65
-48.07
-50.43
-51.24
-49.87
-42.43
-27.91
-9.41
8.01
20.80
27.94
30.25
29.21
26.32
22.63
18.17
12.98
7.72
3.46
0.87
0.24
1.28
3.26
5.37
6.62
6.68
6.03
5.59
6.05
7.57
9.84
12.30
14.44
15.72
15.90
15.23
14.27
13.54
13.26
13.29
13.28
12.72
11.05
7.99
3.72
-1.16
-5.93
-9.95
-12.86
-14.56
-15.23
-15.19
-14.75
-14.06
-13.12
-11.90
-10.42
-8.76
-7.03
-5.32
-3.78
-2.58
-1.92
-1.96
-2.78
-4.24
-6.06
-7.78
-8.96
-9.42
-9.30
-8.93
-8.67
-8.80
-9.47
-10.66
-12.08
-13.32
-14.09
-14.35
-14.23
-13.89
-13.56
-13.42
-13.52
-13.57
-13.16
-12.24
-11.10
-10.16
-9.60
-9.19
-8.46
-6.87
-3.64
1.74
9.20
18.07
27.50
36.83
45.69
53.86
58.70
57.95
51.55
41.98
32.36
24.86
20.43
19.00
19.58
20.52
20.39
18.24
13.77
7.37
-0.04
-7.19
-12.98
-16.86
-18.85
-19.05
-17.75
-15.69
-13.30
-11.13
-9.51
-8.53
-7.99
-7.49
-6.41
-4.22
-0.79
3.53
7.94
11.63
14.04
15.04
14.98
14.58
14.48
14.93
15.61
15.84
15.01
12.82
9.45
5.52
1.82
-1.07
-2.99
-4.26
-5.50
-7.33
-10.16
-14.08
-18.91
-24.24
-29.57
-34.45
-38.54
-41.69
-43.84
-44.96
-44.99
-43.91
-41.86
-39.25
-36.69
-34.74
-33.65
-33.19
-32.70
-31.41
-28.64
-24.07
-17.72
-9.91
-1.19
7.70
15.76
21.98
25.58
26.38
24.90
22.24
19.57
17.67
16.70
16.31
15.96
15.32
14.40
13.58
13.29
13.88
15.40
17.65
20.28
22.94
25.41
27.68
29.87
32.04
34.06
35.46
35.65
34.19
31.08
26.81
22.24
18.15
14.94
12.51
10.41
8.15
5.47
2.46
-0.53
-3.12
-5.10
-6.48
-7.47
-8.34
-9.32
-10.45
-11.59
-12.43
-12.60
-11.83
-10.13
-7.82
-5.48
-3.78
-3.20
-3.86
-5.42
-7.25
-8.72
-9.41
-9.24
-8.44
-7.43
-6.68
-6.63
-7.56
-9.58
-12.50
-15.84
-18.98
-21.36
-22.74
-23.19
-23.03
-22.60
-21.99
-21.06
-19.55
-17.33
-14.56
-11.62
-8.89
-6.58
-4.59
-2.70
-0.76
1.18
2.83
3.89
4.26
4.12
3.85
3.86
4.37
5.36
6.61
7.93
9.15
10.20
11.00
11.38
11.13
10.06
8.17
5.71
3.13
0.92
-0.62
-1.42
-1.68
-1.74
-1.94
-2.46
-3.28
-4.26
-5.16
-5.76
-5.88
-5.43
-4.40
-2.88
-1.06
0.82
2.53
3.91
4.90
5.59
6.17
6.81
7.62
8.53
9.40
10.00
10.15
9.75
8.88
7.66
6.28
4.93
3.72
2.75
2.08
1.73
1.64
1.68
1.67
1.48
1.03
0.35
-0.45
-1.31
-2.21
-3.16
-4.18
-5.22
-6.22
-7.13
-8.05
-9.17
-10.69
-12.66
-14.86
-16.85
-18.11
-18.25
-17.08
-14.54
-10.68
-5.52
0.87
8.15
15.69
22.53
27.67
30.36
30.37
28.10
24.41
20.37
16.88
14.49
13.28
12.91
12.81
12.46
11.50
9.93
7.99
6.08
4.50
3.35
2.42
1.37
-0.15
-2.27
-4.90
-7.76
-10.55
-13.05
-15.22
-17.11
-18.75
-20.02
-20.67
-20.31
-18.56
-15.27
-10.58
-4.95
0.99
6.59
11.36
15.02
17.37
18.28
17.69
15.69
12.73
9.55
7.07
5.97
6.43
8.10
10.25
12.17
13.42
13.89
13.67
12.87
11.48
9.42
6.77
3.76
0.74
-1.93
-4.10
-5.88
-7.52
-9.30
-11.35
-13.59
-15.82
-17.74
-19.14
-19.83
-19.77
-18.90
-17.24
-14.84
-11.82
-8.30
-4.39
-0.13
4.40
9.01
13.31
16.78
19.00
19.81
19.46
18.47
17.33
16.32
15.36
14.15
12.46
10.29
7.94
5.87
4.40
3.56
3.05
2.43
1.29
-0.53
-2.91
-5.52
-8.02
-10.15
-11.81
-13.12
-14.25
-15.39
-16.62
-17.92
-19.17
-20.19
-20.81
-20.86
-20.20
-18.70
-16.31
-13.07
-9.19
-5.04
-1.06
2.33
4.88
6.57
7.67
8.55
9.56
10.81
12.14
13.18
13.54
13.02
11.69
9.89
7.99
6.29
4.94
3.90
3.13
2.55
2.08
1.63
1.07
0.23
-1.03
-2.76
-4.96
-7.54
-10.35
-13.23
-15.95
-18.33
-20.19
-21.37
-21.79
-21.38
-20.15
-18.14
-15.49
-12.37
-8.96
-5.42
-1.84
1.73
5.22
8.57
11.60
14.09
15.82
16.60
16.38
15.26
13.55
11.78
10.48
10.08
10.64
11.88
13.18
13.86
13.48
11.99
9.77
7.34
5.10
3.10
1.07
-1.34
-4.30
-7.60
-10.78
-13.41
-15.30
-16.63
-17.73
-18.85
-19.89
-20.43
-19.98
-18.21
-15.15
-11.19
-6.83
-2.55
1.35
4.72
7.49
9.63
11.17
12.20
12.94
13.64
14.47
15.41
16.24
16.63
16.34
15.29
13.67
11.77
9.82
7.94
6.04
3.98
1.73
-0.63
-2.82
-4.54
-5.53
-5.75
-5.37
-4.78
-4.44
-4.80
-6.07
-8.15
-10.58
-12.71
-13.90
-13.83
-12.58
-10.58
-8.36
-6.28
-4.30
-2.08
0.81
4.60
9.18
14.07
18.63
22.22
24.39
25.00
24.11
22.03
19.22
16.20
13.47
11.32
9.76
8.48
6.95
4.64
1.30
-2.97
-7.68
-12.16
-15.75
-18.08
-19.17
-19.46
-19.60
-20.28
-21.93
-24.66
-28.22
-32.19
-36.04
-39.28
-41.47
-42.13
-40.79
-37.07
-30.90
-22.69
-13.28
-3.84
4.57
11.22
15.89
18.75
20.22
20.75
20.74
20.53
20.40
20.58
21.00
21.30
20.79
18.77
14.81
9.15
2.69
-3.30
-7.62
-9.56
-9.12
-6.89
-3.77
-0.76
1.34
1.90
0.52
-2.97
-8.41
-15.25
-22.53
-29.08
-33.77
-35.85
-35.11
-31.91
-26.93
-20.98
-14.76
-8.80
-3.46
1.03
4.58
7.30
9.49
11.62
14.15
17.34
21.11
25.13
28.95
32.19
34.60
36.03
36.40
35.71
34.06
31.78
29.35
27.23
25.64
24.41
23.09
21.20
18.48
15.03
11.19
7.23
3.21
-1.08
-5.84
-11.03
-16.19
-20.55
-23.33
-24.00
-22.47
-19.07
-14.39
-9.05
-3.62
1.45
5.81
9.22
11.52
12.65
12.67
11.71
10.01
7.90
5.78
4.08
3.14
3.10
3.82
4.91
5.90
6.35
6.09
5.19
3.88
2.44
1.01
-0.40
-1.94
-3.74
-5.90
-8.39
-11.09
-13.78
-16.20
-18.08
-19.21
-19.51
-19.01
-17.89
-16.40
-14.81
-13.36
-12.17
-11.23
-10.37
-9.31
-7.70
-5.29
-2.02
1.94
6.19
10.25
13.65
16.10
17.47
17.84
17.42
16.52
15.52
14.78
14.52
14.75
15.24
15.61
15.47
14.62
13.10
11.19
9.30
7.79
6.86
6.49
6.52
6.68
6.68
6.24
5.24
3.68
1.80
-0.04
-1.49
-2.41
-2.93
-3.45
-4.38
-5.86
-7.60
-8.97
-9.24
-7.93
-5.03
-1.05
3.20
6.91
9.45
10.50
10.01
8.21
5.58
2.72
0.26
-1.32
-1.94
-1.98
-2.11
-3.01
-5.00
-7.90
-11.04
-13.56
-14.81
-14.60
-13.29
-11.65
-10.54
-10.76
-12.76
-16.61
-21.99
-28.17
-34.16
-38.90
-41.51
-41.56
-39.15
-34.78
-29.18
-23.05
-16.92
-11.16
-6.06
-1.80
1.49
3.89
5.68
7.24
8.93
10.97
13.42
16.21
19.19
22.11
24.64
26.33
26.81
25.91
23.82
21.05
18.18
15.67
13.60
11.75
9.72
7.18
4.06
0.48
-3.31
-7.08
-10.69
-14.04
-17.00
-19.37
-20.90
-21.35
-20.63
-18.83
-16.19
-13.04
-9.69
-6.29
-2.92
0.45
3.80
7.02
9.91
12.23
13.79
14.53
14.52
13.97
13.06
11.97
10.81
9.64
8.52
7.48
6.54
5.61
4.55
3.22
1.55
-0.38
-2.35
-4.09
-5.43
-6.39
-7.24
-8.31
-9.89
-12.03
-14.46
-16.65
-17.95
-17.80
-15.92
-12.39
-7.61
-2.17
3.33
8.43
12.92
16.82
20.28
23.44
26.35
28.87
30.85
32.16
32.81
32.99
32.95
32.86
32.76
32.55
32.04
31.15
29.85
28.11
25.82
22.78
18.82
13.97
8.59
3.33
-1.13
-4.33
-6.23
-7.28
-8.16
-9.60
-12.10
-15.78
-20.45
-25.62
-30.68
-34.97
-37.95
-39.31
-38.97
-37.10
-34.01
-30.09
-25.71
-21.20
-16.84
-12.89
-9.47
-6.64
-4.31
-2.34
-0.59
1.00
2.36
3.38
3.93
3.94
3.50
2.78
2.01
1.37
0.88
0.41
-0.26
-1.37
-3.02
-5.12
-7.47
-9.79
-11.88
-13.71
-15.40
-17.10
-18.91
-20.78
-22.41
-23.40
-23.33
-21.91
-19.18
-15.41
-11.08
-6.69
-2.56
1.20
4.63
7.81
10.75
13.30
15.30
16.60
17.22
17.27
16.89
16.13
14.96
13.28
11.09
8.56
6.01
3.87
2.53
2.15
2.65
3.71
4.87
5.64
5.69
4.88
3.23
0.98
-1.59
-4.21
-6.62
-8.70
-10.45
-11.93
-13.27
-14.53
-15.59
-16.15
-15.83
-14.31
-11.54
-7.78
-3.57
0.53
4.01
6.64
8.39
9.34
9.70
9.71
9.68
9.91
10.66
11.91
13.39
14.63
15.17
14.84
13.84
12.67
11.80
11.45
11.38
11.03
9.84
7.55
4.34
0.80
-2.40
-4.74
-6.02
-6.40
-6.29
-6.19
-6.56
-7.70
-9.72
-12.41
-15.31
-17.79
-19.19
-19.07
-17.31
-14.10
-9.86
-5.05
-0.11
4.56
8.61
11.76
13.84
14.86
15.01
14.61
13.95
13.23
12.52
11.86
11.24
10.75
10.45
10.33
10.30
10.14
9.55
8.27
6.14
3.15
-0.53
-4.57
-8.45
-11.67
-13.84
-14.87
-15.03
-14.86
-14.98
-15.85
-17.49
-19.52
-21.28
-22.10
-21.55
-19.59
-16.53
-12.81
-8.80
-4.74
-0.73
3.12
6.59
9.36
11.14
11.77
11.40
10.37
9.07
7.87
6.97
6.42
6.14
5.97
5.67
4.92
3.45
1.18
-1.65
-4.49
-6.61
-7.50
-7.11
-5.99
-5.10
-5.50
-7.85
-12.22
-17.91
-23.70
-28.17
-30.11
-28.95
-24.92
-19.04
-12.79
-7.58
-4.27
-2.89
-2.63
-2.29
-0.72
2.63
7.62
13.44
19.02
23.39
25.93
26.51
25.37
22.95
19.75
16.20
12.66
9.42
6.71
4.67
3.28
2.38
1.73
1.09
0.30
-0.66
-1.68
-2.66
-3.52
-4.28
-5.09
-6.21
-7.94
-10.47
-13.77
-17.45
-20.74
-22.74
-22.66
-20.20
-15.71
-10.11
-4.51
0.17
3.56
5.87
7.72
9.75
12.34
15.45
18.65
21.33
23.00
23.42
22.74
21.38
19.77
18.27
16.98
15.86
14.72
13.46
12.05
10.52
8.85
6.94
4.64
1.89
-1.26
-4.56
-7.65
-10.26
-12.19
-13.46
-14.17
-14.42
-14.29
-13.72
-12.67
-11.11
-9.10
-6.82
-4.41
-1.97
0.57
3.37
6.57
10.14
13.80
17.05
19.36
20.32
19.83
18.09
15.57
12.82
10.31
8.34
6.94
5.91
4.94
3.74
2.17
0.31
-1.60
-3.34
-4.77
-5.94
-6.99
-8.06
-9.15
-10.19
-11.05
-11.74
-12.41
-13.36
-14.84
-16.87
-19.12
-21.00
-21.86
-21.23
-18.99
-15.45
-11.14
-6.63
-2.34
1.53
4.91
7.78
10.10
11.79
12.76
